0 -0.06000000
1 -0.06500000
2 -0.06000000
3 -0.07500000
4 -0.06500000
5 -0.07000000
6 -0.07000000
7 -0.09000000
8 -0.08000000
9 -0.09500000
10 -0.08000000
11 -0.09500000
12 -0.08000000
13 -0.09500000
14 -0.08500000
15 -0.09000000
16 -0.09000000
17 -0.10000000
18 -0.08500000
19 -0.10500000
20 -0.09000000
21 -0.04500000
22 0.00500000
23 0.01500000
24 0.04500000
25 0.15500000
26 0.14000000
27 0.04500000
28 0.00500000
29 -0.04000000
30 -0.08500000
31 -0.20000000
32 -0.19500000
33 -0.20000000
34 -0.20000000
35 -0.24000000
36 -0.13000000
37 0.34000000
38 1.15500000
39 1.47000000
40 -0.15500000
41 -0.82500000
42 -0.59000000
43 -0.35000000
44 -0.15500000
45 -0.17000000
46 -0.14000000
47 -0.15500000
48 -0.11500000
49 -0.12500000
50 -0.09000000
51 -0.09500000
52 -0.06500000
53 -0.05500000
54 -0.01500000
55 -0.00500000
56 0.03500000
57 0.04500000
58 0.09000000
59 0.11000000
60 0.15000000
61 0.18000000
62 0.20500000
63 0.22500000
64 0.23000000
65 0.22000000
66 0.23500000
67 0.23000000
68 0.20000000
69 0.17000000
70 0.12000000
71 0.07500000
72 0.04000000
73 0.02000000
74 0.00500000
75 -0.00500000
76 -0.00500000
77 -0.01000000
78 -0.01500000
79 -0.01000000
80 0.00000000
81 -0.00500000
82 -0.02000000
83 -0.02000000
84 -0.01500000
85 -0.02500000
86 -0.03500000
87 -0.04500000
88 -0.04500000
89 -0.06000000
90 -0.06500000
91 -0.07000000
92 -0.05500000
93 -0.06000000
94 -0.08000000
95 -0.07500000
96 -0.09000000
97 -0.06500000
98 -0.07500000
99 -0.08000000
100 -0.08000000
101 -0.08500000
102 -0.09000000
103 -0.07500000
104 -0.08500000
105 -0.09500000
106 -0.10500000
107 -0.09000000
108 -0.09500000
109 -0.07000000
110 -0.04500000
111 0.00500000
112 0.03000000
113 0.07000000
114 0.19500000
115 0.14500000
116 0.05000000
117 -0.01500000
118 -0.02500000
119 -0.11500000
120 -0.18000000
121 -0.19000000
122 -0.18500000
123 -0.18500000
124 -0.21500000
125 0.01000000
126 0.57500000
127 1.18500000
128 0.96000000
129 -0.16000000
130 -0.74000000
131 -0.64000000
132 -0.35000000
133 -0.17500000
134 -0.14500000
135 -0.15000000
136 -0.14500000
137 -0.10500000
138 -0.12000000
139 -0.09000000
140 -0.08500000
141 -0.07000000
142 -0.04000000
143 -0.02000000
144 0.00500000
145 0.02000000
146 0.04500000
147 0.08000000
148 0.11500000
149 0.14000000
150 0.16500000
151 0.21000000
152 0.19000000
153 0.22000000
154 0.21000000
155 0.21500000
156 0.21500000
157 0.16000000
158 0.13500000
159 0.10000000
160 0.05000000
161 0.03500000
162 -0.00500000
163 0.00500000
164 -0.00500000
165 -0.01500000
166 -0.02000000
167 -0.01000000
168 0.00000000
169 -0.02000000
170 -0.00500000
171 -0.04000000
172 -0.03500000
173 -0.05000000
174 -0.04000000
175 -0.05500000
176 -0.07500000
177 -0.05000000
178 -0.07500000
179 -0.09000000
180 -0.08000000
181 -0.09000000
182 -0.08000000
183 -0.07500000
184 -0.08500000
185 -0.08500000
186 -0.09500000
187 -0.09500000
188 -0.10500000
189 -0.08000000
190 -0.11500000
191 -0.10000000
192 -0.09500000
193 -0.10000000
194 -0.07500000
195 -0.00500000
196 0.01000000
197 0.05500000
198 0.18500000
199 0.14500000
200 0.07500000
201 -0.00500000
202 -0.02500000
203 -0.11000000
204 -0.17500000
205 -0.18000000
206 -0.22000000
207 -0.17500000
208 -0.24000000
209 -0.03000000
210 0.53000000
211 1.21000000
212 1.22000000
213 -0.10500000
214 -0.79500000
215 -0.69000000
216 -0.37500000
217 -0.16500000
218 -0.15500000
219 -0.13500000
220 -0.15000000
221 -0.12000000
222 -0.12000000
223 -0.09000000
224 -0.09500000
225 -0.05000000
226 -0.05000000
227 -0.01000000
228 -0.00500000
229 0.03000000
230 0.08000000
231 0.07500000
232 0.14500000
233 0.15500000
234 0.20000000
235 0.20000000
236 0.24000000
237 0.23500000
238 0.24500000
239 0.24500000
240 0.21500000
241 0.18000000
242 0.15000000
243 0.09000000
244 0.03500000
245 0.02500000
246 0.00000000
247 -0.01500000
248 -0.03000000
249 0.00000000
250 -0.02000000
251 -0.00500000
252 -0.02500000
253 -0.03000000
254 -0.01500000
255 -0.01000000
256 -0.03500000
257 -0.04000000
258 -0.05000000
259 -0.04500000
260 -0.04000000
261 -0.07500000
262 -0.06500000
263 -0.09500000
264 -0.08500000
265 -0.08500000
266 -0.09000000
267 -0.10000000
268 -0.10000000
269 -0.08000000
270 -0.10500000
271 -0.10500000
272 -0.10000000
273 -0.10500000
274 -0.09500000
275 -0.10000000
276 -0.09000000
277 -0.03500000
278 0.01000000
279 0.03500000
280 0.07000000
281 0.19000000
282 0.12500000
283 0.04500000
284 -0.03500000
285 -0.06000000
286 -0.15500000
287 -0.21000000
288 -0.22500000
289 -0.20000000
290 -0.21500000
291 -0.26500000
292 0.07000000
293 0.86500000
294 1.49500000
295 0.62500000
296 -0.44000000
297 -0.81500000
298 -0.60000000
299 -0.31000000
300 -0.17500000
301 -0.18000000
302 -0.16500000
303 -0.13500000
304 -0.13500000
305 -0.11500000
306 -0.10500000
307 -0.08500000
308 -0.06000000
309 -0.03000000
310 -0.02000000
311 0.01500000
312 0.05000000
313 0.07000000
314 0.10500000
315 0.16500000
316 0.20000000
317 0.20500000
318 0.23500000
319 0.23500000
320 0.26500000
321 0.26000000
322 0.23500000
323 0.21500000
324 0.17000000
325 0.12500000
326 0.09000000
327 0.02500000
328 -0.01500000
329 -0.03000000
330 -0.03500000
331 -0.04000000
332 -0.04000000
333 -0.03500000
334 -0.04000000
335 -0.02000000
336 -0.04000000
337 -0.04000000
338 -0.03000000
339 -0.04500000
340 -0.06500000
341 -0.06000000
342 -0.06000000
343 -0.09000000
344 -0.08000000
345 -0.09500000
346 -0.08500000
347 -0.10500000
348 -0.09000000
349 -0.10000000
350 -0.10500000
351 -0.11500000
352 -0.10000000
353 -0.11500000
354 -0.11000000
355 -0.13500000
356 -0.09500000
357 -0.12500000
358 -0.10500000
359 -0.08500000
360 -0.01500000
361 0.02000000
362 0.03000000
363 0.13500000
364 0.16000000
365 0.10500000
366 0.03000000
367 -0.05000000
368 -0.05000000
369 -0.17000000
370 -0.20500000
371 -0.21500000
372 -0.17500000
373 -0.21000000
374 -0.21500000
375 0.17500000
376 1.09000000
377 1.70000000
378 0.33500000
379 -0.61500000
380 -0.70500000
381 -0.46000000
382 -0.17500000
383 -0.16500000
384 -0.14500000
385 -0.15500000
386 -0.11500000
387 -0.12000000
388 -0.10500000
389 -0.10500000
390 -0.08500000
391 -0.06000000
392 -0.01500000
393 -0.00500000
394 0.02000000
395 0.05000000
396 0.08000000
397 0.10500000
398 0.18000000
399 0.20500000
400 0.24000000
401 0.23500000
402 0.27000000
403 0.27000000
404 0.28000000
405 0.26000000
406 0.23000000
407 0.17500000
408 0.13500000
409 0.09000000
410 0.04500000
411 0.00000000
412 -0.00500000
413 -0.02500000
414 -0.02500000
415 -0.02500000
416 -0.02000000
417 0.00000000
418 -0.00500000
419 -0.00500000
420 -0.00500000
421 -0.00500000
422 -0.01000000
423 -0.02500000
424 -0.02000000
425 -0.04000000
426 -0.04000000
427 -0.04000000
428 -0.05000000
429 -0.06000000
430 -0.05000000
431 -0.06500000
432 -0.06000000
433 -0.07000000
434 -0.06000000
435 -0.09000000
436 -0.08000000
437 -0.09500000
438 -0.08500000
439 -0.10000000
440 -0.09000000
441 -0.09500000
442 -0.08500000
443 -0.10000000
444 -0.07500000
445 -0.09500000
446 -0.08000000
447 -0.07500000
448 0.00000000
449 0.03000000
450 0.03500000
451 0.13500000
452 0.14500000
453 0.07000000
454 0.01500000
455 -0.04500000
456 -0.05500000
457 -0.18500000
458 -0.19000000
459 -0.22000000
460 -0.18000000
461 -0.21000000
462 -0.18500000
463 0.22000000
464 1.15000000
465 1.72000000
466 0.15500000
467 -0.70000000
468 -0.66000000
469 -0.40500000
470 -0.15000000
471 -0.16000000
472 -0.13500000
473 -0.14500000
474 -0.12000000
475 -0.12500000
476 -0.09000000
477 -0.09000000
478 -0.05500000
479 -0.04000000
480 -0.01500000
481 0.00000000
482 0.03000000
483 0.05000000
484 0.09500000
485 0.11000000
486 0.16500000
487 0.19000000
488 0.23000000
489 0.24500000
490 0.25500000
491 0.25500000
492 0.26500000
493 0.25500000
494 0.23000000
495 0.18500000
496 0.14500000
497 0.10000000
498 0.06000000
499 0.02500000
500 0.02500000
501 0.01000000
502 0.01000000
503 0.01000000
504 0.01500000
505 0.01000000
506 0.02500000
507 0.02000000
508 0.02000000
509 0.02000000
510 0.01500000
511 0.00000000
512 0.00000000
513 -0.01000000
514 -0.01500000
515 -0.02000000
516 -0.03000000
517 -0.03500000
518 -0.03500000
519 -0.04500000
520 -0.04000000
521 -0.04500000
522 -0.04500000
523 -0.05500000
524 -0.04500000
525 -0.05500000
526 -0.04500000
527 -0.06000000
528 -0.05000000
529 -0.06000000
530 -0.05500000
531 -0.08000000
532 -0.06500000
533 -0.09000000
534 -0.07500000
535 -0.09000000
536 -0.07000000
537 -0.07500000
538 -0.06500000
539 -0.08000000
540 -0.06500000
541 -0.03000000
542 0.02500000
543 0.04000000
544 0.06500000
545 0.18000000
546 0.14500000
547 0.05500000
548 0.01500000
549 -0.03500000
550 -0.06000000
551 -0.17500000
552 -0.17000000
553 -0.19500000
554 -0.17500000
555 -0.22000000
556 -0.11500000
557 0.35500000
558 1.24000000
559 1.59500000
560 -0.11500000
561 -0.81500000
562 -0.56500000
563 -0.30000000
564 -0.13000000
565 -0.16000000
566 -0.13000000
567 -0.13500000
568 -0.11000000
569 -0.12000000
570 -0.09000000
571 -0.08500000
572 -0.05500000
573 -0.04000000
574 -0.00500000
575 0.00000000
576 0.04000000
577 0.05000000
578 0.09500000
579 0.12500000
580 0.17000000
581 0.19000000
582 0.22000000
583 0.23000000
584 0.24500000
585 0.25000000
586 0.26000000
587 0.24000000
588 0.22000000
589 0.17500000
590 0.13500000
591 0.08500000
592 0.05500000
593 0.02000000
594 0.01500000
595 0.01000000
596 0.01000000
597 0.00000000
598 0.00000000
599 0.00000000
600 0.01000000
601 0.00500000
602 0.02000000
603 0.01000000
604 0.00000000
605 -0.01000000
606 -0.01500000
607 -0.02000000
608 -0.02000000
609 -0.02500000
610 -0.03500000
611 -0.03000000
612 -0.04500000
613 -0.05000000
614 -0.05000000
615 -0.05500000
616 -0.06500000
617 -0.06500000
618 -0.06000000
619 -0.06500000
620 -0.07000000
621 -0.06000000
622 -0.06000000
623 -0.05500000
624 -0.06000000
625 -0.06500000
626 -0.08000000
627 -0.06500000
628 -0.08000000
629 -0.06500000
630 -0.07500000
631 -0.07000000
632 -0.08500000
633 -0.07000000
634 -0.08500000
635 -0.07500000
636 -0.08500000
637 -0.06000000
638 -0.04500000
639 0.02000000
640 0.04000000
641 0.05500000
642 0.18000000
643 0.15500000
644 0.06000000
645 0.02000000
646 -0.02500000
647 -0.05500000
648 -0.18000000
649 -0.16000000
650 -0.17000000
651 -0.16500000
652 -0.19500000
653 -0.10000000
654 0.35000000
655 1.11500000
656 1.49500000
657 -0.04000000
658 -0.73000000
659 -0.62000000
660 -0.36500000
661 -0.13000000
662 -0.15000000
663 -0.13500000
664 -0.15000000
665 -0.12000000
666 -0.13000000
667 -0.10500000
668 -0.09000000
669 -0.05500000
670 -0.06000000
671 -0.03500000
672 -0.01500000
673 0.02000000
674 0.04500000
675 0.06500000
676 0.09500000
677 0.14500000
678 0.18000000
679 0.21500000
680 0.20000000
681 0.22500000
682 0.23500000
683 0.24500000
684 0.23500000
685 0.22500000
686 0.17500000
687 0.13000000
688 0.09000000
689 0.05000000
690 0.03500000
691 0.01500000
692 0.00500000
693 0.00000000
694 -0.00500000
695 0.00000000
696 0.00000000
697 0.00000000
698 0.00000000
699 -0.00500000
700 -0.00500000
701 -0.02000000
702 -0.02000000
703 -0.04000000
704 -0.05000000
705 -0.06000000
706 -0.06000000
707 -0.06000000
708 -0.07000000
709 -0.06500000
710 -0.07500000
711 -0.07000000
712 -0.06500000
713 -0.07500000
714 -0.07500000
715 -0.07500000
716 -0.09000000
717 -0.07500000
718 -0.08500000
719 -0.08000000
720 -0.09000000
721 -0.07500000
722 -0.09000000
723 -0.08000000
724 -0.09000000
725 -0.08000000
726 -0.10000000
727 -0.08500000
728 -0.10000000
729 -0.07500000
730 -0.08500000
731 -0.09000000
732 -0.07500000
733 -0.01500000
734 0.02500000
735 0.05500000
736 0.15500000
737 0.16000000
738 0.09500000
739 0.01500000
740 -0.03500000
741 -0.05000000
742 -0.17500000
743 -0.17000000
744 -0.19000000
745 -0.17500000
746 -0.20000000
747 -0.10500000
748 0.33500000
749 1.09500000
750 1.47000000
751 0.06500000
752 -0.66000000
753 -0.69000000
754 -0.44000000
755 -0.18500000
756 -0.16000000
757 -0.13500000
758 -0.13500000
759 -0.11500000
760 -0.11500000
761 -0.11000000
762 -0.09500000
763 -0.05500000
764 -0.05000000
765 -0.01500000
766 -0.00500000
767 0.04500000
768 0.05000000
769 0.09500000
770 0.12000000
771 0.16500000
772 0.18500000
773 0.21000000
774 0.22500000
775 0.24500000
776 0.24000000
777 0.24000000
778 0.23500000
779 0.21000000
780 0.16500000
781 0.12500000
782 0.07000000
783 0.04500000
784 0.01000000
785 0.02000000
786 0.00500000
787 0.00000000
788 0.00000000
789 0.00000000
790 0.00000000
791 0.00000000
792 -0.00500000
793 -0.01000000
794 -0.00500000
795 -0.02500000
796 -0.00500000
797 -0.04000000
798 -0.04000000
799 -0.04500000
800 -0.04500000
801 -0.04000000
802 -0.05500000
803 -0.06500000
804 -0.05000000
805 -0.06500000
806 -0.06500000
807 -0.06500000
808 -0.06500000
809 -0.07000000
810 -0.06500000
811 -0.07000000
812 -0.06500000
813 -0.07000000
814 -0.07000000
815 -0.08500000
816 -0.06000000
817 -0.09000000
818 -0.06500000
819 -0.08500000
820 -0.08000000
821 -0.08500000
822 -0.05000000
823 -0.09000000
824 -0.07500000
825 -0.05500000
826 0.00500000
827 0.05500000
828 0.06000000
829 0.16000000
830 0.15500000
831 0.08000000
832 0.01500000
833 -0.02000000
834 -0.04500000
835 -0.17000000
836 -0.17000000
837 -0.17500000
838 -0.16000000
839 -0.20000000
840 -0.10500000
841 0.36000000
842 1.16000000
843 1.55000000
844 0.07000000
845 -0.69000000
846 -0.66000000
847 -0.41000000
848 -0.15500000
849 -0.15500000
850 -0.13500000
851 -0.13500000
852 -0.10500000
853 -0.11000000
854 -0.08500000
855 -0.09000000
856 -0.06500000
857 -0.04500000
858 -0.00500000
859 0.00000000
860 0.04000000
861 0.06500000
862 0.10000000
863 0.12000000
864 0.17500000
865 0.19000000
866 0.23000000
867 0.25500000
868 0.27000000
869 0.26500000
870 0.27500000
871 0.24500000
872 0.21500000
873 0.17500000
874 0.14000000
875 0.09500000
876 0.04000000
877 0.02500000
878 0.01500000
879 0.00000000
880 0.00000000
881 0.00000000
882 0.00000000
883 0.00000000
884 0.00000000
885 0.00000000
886 0.00000000
887 -0.00500000
888 -0.01000000
889 -0.01000000
890 -0.01500000
891 -0.03000000
892 -0.03500000
893 -0.04500000
894 -0.04500000
895 -0.05000000
896 -0.04500000
897 -0.06500000
898 -0.07000000
899 -0.07500000
900 -0.07000000
901 -0.09000000
902 -0.08500000
903 -0.09000000
904 -0.07000000
905 -0.08500000
906 -0.08500000
907 -0.09500000
908 -0.08500000
909 -0.09000000
910 -0.08500000
911 -0.09000000
912 -0.09000000
913 -0.10000000
914 -0.09000000
915 -0.10500000
916 -0.09000000
917 -0.10000000
918 -0.08500000
919 -0.05500000
920 0.00000000
921 0.03500000
922 0.05000000
923 0.17000000
924 0.13500000
925 0.06000000
926 0.01000000
927 -0.03500000
928 -0.07500000
929 -0.19000000
930 -0.18500000
931 -0.20500000
932 -0.18000000
933 -0.22500000
934 -0.11000000
935 0.38000000
936 1.21500000
937 1.54500000
938 -0.02500000
939 -0.76500000
940 -0.62000000
941 -0.37000000
942 -0.15500000
943 -0.17000000
944 -0.14500000
945 -0.16000000
946 -0.13000000
947 -0.14500000
948 -0.12500000
949 -0.12000000
950 -0.08000000
951 -0.06500000
952 -0.03500000
953 -0.02000000
954 0.01000000
955 0.03500000
956 0.08000000
957 0.10500000
958 0.15500000
959 0.18000000
960 0.22000000
961 0.22500000
962 0.24000000
963 0.23500000
964 0.24500000
965 0.22500000
966 0.20000000
967 0.15500000
968 0.11500000
969 0.07500000
970 0.05000000
971 0.02000000
972 0.00000000
973 -0.01000000
974 -0.01500000
975 -0.01000000
976 -0.01000000
977 -0.00500000
978 0.00000000
979 0.00000000
980 0.00000000
981 0.00000000
982 0.00000000
983 -0.00500000
984 -0.01000000
985 -0.02000000
986 -0.02500000
987 -0.03500000
988 -0.04500000
989 -0.05500000
990 -0.05500000
991 -0.06000000
992 -0.06000000
993 -0.06000000
994 -0.05500000
995 -0.05500000
996 -0.05500000
997 -0.06500000
998 -0.06000000
999 -0.05500000
1000 -0.04500000
1001 -0.05500000
1002 -0.05500000
1003 -0.05500000
1004 -0.05500000
1005 -0.07500000
1006 -0.06500000
1007 -0.08000000
1008 -0.06500000
1009 -0.08000000
1010 -0.07500000
1011 -0.09000000
1012 -0.08500000
1013 -0.10500000
1014 -0.09000000
1015 -0.11000000
1016 -0.09500000
1017 -0.11000000
1018 -0.10000000
1019 -0.08500000
1020 -0.02500000
1021 0.01000000
1022 0.01000000
1023 0.10000000
1024 0.13500000
1025 0.07500000
1026 0.00000000
1027 -0.05000000
1028 -0.04500000
1029 -0.17500000
1030 -0.19500000
1031 -0.20500000
1032 -0.19000000
1033 -0.20500000
1034 -0.22000000
1035 0.14500000
1036 1.02500000
1037 1.60500000
1038 0.24000000
1039 -0.62500000
1040 -0.66500000
1041 -0.42500000
1042 -0.18000000
1043 -0.18500000
1044 -0.17500000
1045 -0.17500000
1046 -0.15000000
1047 -0.15000000
1048 -0.12000000
1049 -0.12000000
1050 -0.09000000
1051 -0.08000000
1052 -0.04500000
1053 -0.02500000
1054 0.00000000
1055 0.02000000
1056 0.06000000
1057 0.08000000
1058 0.13000000
1059 0.16000000
1060 0.18500000
1061 0.19500000
1062 0.21000000
1063 0.21000000
1064 0.22000000
1065 0.21500000
1066 0.19500000
1067 0.17000000
1068 0.13500000
1069 0.08500000
1070 0.04500000
1071 0.01500000
1072 -0.00500000
1073 -0.01500000
1074 -0.01500000
1075 -0.01500000
1076 -0.00500000
1077 -0.00500000
1078 0.00000000
1079 0.00000000
1080 0.01500000
1081 0.01000000
1082 0.00000000
1083 0.00000000
1084 0.00000000
1085 -0.01000000
1086 -0.01500000
1087 -0.02500000
1088 -0.03000000
1089 -0.02500000
1090 -0.04000000
1091 -0.04500000
1092 -0.04000000
1093 -0.05000000
1094 -0.05500000
1095 -0.04500000
1096 -0.03000000
1097 -0.04500000
1098 -0.05000000
1099 -0.04000000
1100 -0.04500000
1101 -0.05500000
1102 -0.05500000
1103 -0.06500000
1104 -0.06500000
1105 -0.06500000
1106 -0.07000000
1107 -0.08000000
1108 -0.06500000
1109 -0.07500000
1110 -0.07500000
1111 -0.08000000
1112 -0.07000000
1113 -0.08000000
1114 -0.08000000
1115 -0.08500000
1116 -0.06500000
1117 -0.08000000
1118 -0.08000000
1119 -0.09000000
1120 -0.09000000
1121 -0.07500000
1122 -0.02500000
1123 0.03500000
1124 0.04500000
1125 0.11500000
1126 0.16500000
1127 0.12500000
1128 0.04000000
1129 -0.01500000
1130 -0.00500000
1131 -0.13500000
1132 -0.17000000
1133 -0.18500000
1134 -0.16500000
1135 -0.18000000
1136 -0.20000000
1137 0.13500000
1138 0.89000000
1139 1.44000000
1140 0.42500000
1141 -0.47000000
1142 -0.67000000
1143 -0.45500000
1144 -0.20000000
1145 -0.15500000
1146 -0.13000000
1147 -0.14000000
1148 -0.12500000
1149 -0.13000000
1150 -0.10500000
1151 -0.11000000
1152 -0.08000000
1153 -0.06000000
1154 -0.04500000
1155 -0.03000000
1156 0.00500000
1157 0.01500000
1158 0.04500000
1159 0.08500000
1160 0.11000000
1161 0.14000000
1162 0.18000000
1163 0.20500000
1164 0.21500000
1165 0.21500000
1166 0.23500000
1167 0.22500000
1168 0.22500000
1169 0.19000000
1170 0.16000000
1171 0.12500000
1172 0.07000000
1173 0.03500000
1174 0.01500000
1175 0.01000000
1176 0.00500000
1177 0.00500000
1178 0.00000000
1179 0.00500000
1180 0.01000000
1181 0.00500000
1182 0.00500000
1183 0.01000000
1184 0.00000000
1185 0.00500000
1186 0.00000000
1187 -0.01000000
1188 -0.01500000
1189 -0.02000000
1190 -0.01500000
1191 -0.02500000
1192 -0.03000000
1193 -0.03000000
1194 -0.04000000
1195 -0.03500000
1196 -0.03500000
1197 -0.04000000
1198 -0.04500000
1199 -0.04500000
1200 -0.05000000
1201 -0.04500000
1202 -0.05500000
1203 -0.05500000
1204 -0.06000000
1205 -0.06000000
1206 -0.06500000
1207 -0.05500000
1208 -0.06500000
1209 -0.06500000
1210 -0.06500000
1211 -0.06000000
1212 -0.06000000
1213 -0.06000000
1214 -0.07000000
1215 -0.06000000
1216 -0.08000000
1217 -0.07500000
1218 -0.07500000
1219 -0.07500000
1220 -0.08000000
1221 -0.07000000
1222 -0.06500000
1223 -0.01000000
1224 0.03000000
1225 0.05000000
1226 0.10000000
1227 0.20000000
1228 0.14500000
1229 0.05500000
1230 -0.00500000
1231 0.00000000
1232 -0.12000000
1233 -0.16000000
1234 -0.17000000
1235 -0.16000000
1236 -0.17500000
1237 -0.21000000
1238 0.12500000
1239 0.83500000
1240 1.35000000
1241 0.53000000
1242 -0.33500000
1243 -0.67500000
1244 -0.54000000
1245 -0.25000000
1246 -0.14500000
1247 -0.14500000
1248 -0.13500000
1249 -0.11500000
1250 -0.11500000
1251 -0.09000000
1252 -0.09000000
1253 -0.07500000
1254 -0.06000000
1255 -0.02500000
1256 0.00000000
1257 0.03000000
1258 0.04000000
1259 0.08000000
1260 0.09500000
1261 0.13000000
1262 0.16000000
1263 0.20500000
1264 0.21000000
1265 0.22000000
1266 0.22500000
1267 0.25000000
1268 0.25000000
1269 0.23000000
1270 0.19500000
1271 0.17000000
1272 0.11500000
1273 0.07500000
1274 0.05000000
1275 0.03500000
1276 0.00500000
1277 0.01500000
1278 0.03000000
1279 0.02500000
1280 0.02000000
1281 0.02000000
1282 0.03000000
1283 0.02000000
1284 0.03500000
1285 0.01500000
1286 0.00500000
1287 0.00500000
1288 -0.00500000
1289 -0.00500000
1290 -0.02000000
1291 -0.01000000
1292 -0.01500000
1293 -0.03500000
1294 -0.03000000
1295 -0.02500000
1296 -0.02500000
1297 -0.02500000
1298 -0.04000000
1299 -0.04000000
1300 -0.03500000
1301 -0.03000000
1302 -0.03000000
1303 -0.04000000
1304 -0.03000000
1305 -0.04000000
1306 -0.03000000
1307 -0.03500000
1308 -0.03500000
1309 -0.04500000
1310 -0.04500000
1311 -0.06500000
1312 -0.05500000
1313 -0.06000000
1314 -0.06000000
1315 -0.07500000
1316 -0.05000000
1317 -0.06000000
1318 -0.06000000
1319 -0.06500000
1320 -0.07000000
1321 -0.04000000
1322 0.01000000
1323 0.05500000
1324 0.07500000
1325 0.18000000
1326 0.18500000
1327 0.10000000
1328 0.02500000
1329 -0.02500000
1330 -0.05500000
1331 -0.17500000
1332 -0.16500000
1333 -0.18000000
1334 -0.17000000
1335 -0.22000000
1336 -0.10000000
1337 0.36500000
1338 1.09500000
1339 1.45000000
1340 0.06500000
1341 -0.66500000
1342 -0.67000000
1343 -0.43500000
1344 -0.18500000
1345 -0.17000000
1346 -0.15000000
1347 -0.15500000
1348 -0.13000000
1349 -0.12000000
1350 -0.09500000
1351 -0.10500000
1352 -0.07000000
1353 -0.05500000
1354 -0.02500000
1355 -0.00500000
1356 0.03500000
1357 0.04000000
1358 0.08500000
1359 0.12000000
1360 0.16500000
1361 0.19000000
1362 0.22000000
1363 0.23500000
1364 0.25000000
1365 0.25500000
1366 0.26000000
1367 0.24500000
1368 0.21500000
1369 0.18000000
1370 0.14000000
1371 0.09500000
1372 0.06000000
1373 0.03000000
1374 0.01500000
1375 0.01000000
1376 0.01000000
1377 0.01000000
1378 0.00000000
1379 0.00500000
1380 0.01000000
1381 0.01500000
1382 0.00000000
1383 0.00500000
1384 0.00000000
1385 0.00000000
1386 -0.02000000
1387 -0.02500000
1388 -0.01500000
1389 -0.01500000
1390 -0.01500000
1391 -0.03000000
1392 -0.04000000
1393 -0.03500000
1394 -0.04500000
1395 -0.04000000
1396 -0.04000000
1397 -0.04500000
1398 -0.05000000
1399 -0.04000000
1400 -0.05000000
1401 -0.05000000
1402 -0.05000000
1403 -0.05500000
1404 -0.06000000
1405 -0.05000000
1406 -0.06500000
1407 -0.05500000
1408 -0.07500000
1409 -0.05500000
1410 -0.07500000
1411 -0.05500000
1412 -0.07500000
1413 -0.06500000
1414 -0.07000000
1415 -0.07500000
1416 -0.10000000
1417 -0.07000000
1418 -0.04500000
1419 0.01000000
1420 0.05000000
1421 0.06500000
1422 0.17000000
1423 0.15500000
1424 0.08500000
1425 0.03500000
1426 -0.02000000
1427 -0.03000000
1428 -0.16000000
1429 -0.16500000
1430 -0.19000000
1431 -0.16500000
1432 -0.20500000
1433 -0.12000000
1434 0.31000000
1435 1.15000000
1436 1.59000000
1437 0.07000000
1438 -0.68500000
1439 -0.61500000
1440 -0.38500000
1441 -0.16000000
1442 -0.17500000
1443 -0.14000000
1444 -0.15000000
1445 -0.13500000
1446 -0.14000000
1447 -0.12000000
1448 -0.11500000
1449 -0.08500000
1450 -0.08000000
1451 -0.04500000
1452 -0.03000000
1453 0.00500000
1454 0.02000000
1455 0.05500000
1456 0.08500000
1457 0.14500000
1458 0.17500000
1459 0.20500000
1460 0.21500000
1461 0.23500000
1462 0.24000000
1463 0.24500000
1464 0.23500000
1465 0.21500000
1466 0.18000000
1467 0.14500000
1468 0.09500000
1469 0.05500000
1470 0.01500000
1471 0.01000000
1472 -0.01500000
1473 -0.01000000
1474 -0.01000000
1475 -0.01000000
1476 -0.01500000
1477 -0.00500000
1478 0.00000000
1479 0.00000000
1480 -0.00500000
1481 -0.01500000
1482 -0.01500000
1483 -0.02000000
1484 -0.02500000
1485 -0.04000000
1486 -0.05500000
1487 -0.05000000
1488 -0.05500000
1489 -0.05000000
1490 -0.07000000
1491 -0.07000000
1492 -0.07000000
1493 -0.08000000
1494 -0.07000000
1495 -0.07500000
1496 -0.07500000
1497 -0.08000000
1498 -0.07500000
1499 -0.08500000
1500 -0.07500000
1501 -0.07500000
1502 -0.07500000
1503 -0.08000000
1504 -0.08500000
1505 -0.09000000
1506 -0.07500000
1507 -0.08000000
1508 -0.07500000
1509 -0.10000000
1510 -0.09500000
1511 -0.08000000
1512 -0.08500000
1513 -0.07500000
1514 -0.02500000
1515 0.03000000
1516 0.02000000
1517 0.08500000
1518 0.15000000
1519 0.10500000
1520 0.02500000
1521 -0.04000000
1522 -0.03500000
1523 -0.15000000
1524 -0.20000000
1525 -0.21000000
1526 -0.19500000
1527 -0.19500000
1528 -0.22500000
1529 0.09500000
1530 0.83500000
1531 1.39000000
1532 0.58500000
1533 -0.35000000
1534 -0.68500000
1535 -0.50500000
1536 -0.23500000
1537 -0.16000000
1538 -0.15000000
1539 -0.15000000
1540 -0.13500000
1541 -0.14000000
1542 -0.12000000
1543 -0.10000000
1544 -0.07500000
1545 -0.06000000
1546 -0.03500000
1547 -0.01500000
1548 0.01000000
1549 0.03500000
1550 0.07000000
1551 0.10000000
1552 0.14000000
1553 0.17000000
1554 0.21000000
1555 0.23000000
1556 0.25000000
1557 0.26000000
1558 0.26000000
1559 0.26000000
1560 0.23500000
1561 0.20000000
1562 0.15500000
1563 0.11500000
1564 0.07000000
1565 0.03500000
1566 0.01000000
1567 0.01000000
1568 0.00000000
1569 0.00000000
1570 -0.00500000
1571 0.00000000
1572 0.00000000
1573 0.00000000
1574 0.00000000
1575 0.00000000
1576 0.00000000
1577 0.00000000
1578 -0.01000000
1579 -0.01000000
1580 -0.01500000
1581 -0.02500000
1582 -0.03000000
1583 -0.04000000
1584 -0.04500000
1585 -0.05500000
1586 -0.05500000
1587 -0.06000000
1588 -0.06000000
1589 -0.06500000
1590 -0.06500000
1591 -0.06500000
1592 -0.06000000
1593 -0.06500000
1594 -0.06500000
1595 -0.08000000
1596 -0.07500000
1597 -0.08000000
1598 -0.07000000
1599 -0.08500000
1600 -0.07000000
1601 -0.08500000
1602 -0.07000000
1603 -0.08500000
1604 -0.07000000
1605 -0.09000000
1606 -0.08000000
1607 -0.09000000
1608 -0.07500000
1609 -0.09500000
1610 -0.08000000
1611 -0.05500000
1612 0.00500000
1613 0.04000000
1614 0.04000000
1615 0.15000000
1616 0.14000000
1617 0.06500000
1618 0.00500000
1619 -0.04500000
1620 -0.05500000
1621 -0.19000000
1622 -0.19000000
1623 -0.21000000
1624 -0.18000000
1625 -0.20500000
1626 -0.16000000
1627 0.25500000
1628 1.15000000
1629 1.64000000
1630 0.00500000
1631 -0.72000000
1632 -0.59000000
1633 -0.36500000
1634 -0.15500000
1635 -0.18000000
1636 -0.14500000
1637 -0.15500000
1638 -0.12500000
1639 -0.13000000
1640 -0.09500000
1641 -0.09500000
1642 -0.06000000
1643 -0.05500000
1644 -0.01500000
1645 -0.00500000
1646 0.02500000
1647 0.04500000
1648 0.08500000
1649 0.11500000
1650 0.16500000
1651 0.20500000
1652 0.24500000
1653 0.25000000
1654 0.26000000
1655 0.25500000
1656 0.25000000
1657 0.25000000
1658 0.23000000
1659 0.18500000
1660 0.14500000
1661 0.10500000
1662 0.06000000
1663 0.02500000
1664 0.00500000
1665 0.00000000
1666 -0.01000000
1667 0.00000000
1668 0.00000000
1669 0.00000000
1670 0.00000000
1671 0.00000000
1672 0.00000000
1673 0.00500000
1674 0.00000000
1675 -0.00500000
1676 -0.00500000
1677 -0.01000000
1678 -0.01500000
1679 -0.02000000
1680 -0.02500000
1681 -0.03500000
1682 -0.04500000
1683 -0.03500000
1684 -0.05000000
1685 -0.05000000
1686 -0.05500000
1687 -0.05500000
1688 -0.06000000
1689 -0.05500000
1690 -0.06000000
1691 -0.06500000
1692 -0.06500000
1693 -0.06000000
1694 -0.06000000
1695 -0.05000000
1696 -0.07000000
1697 -0.06000000
1698 -0.06500000
1699 -0.05500000
1700 -0.07000000
1701 -0.06000000
1702 -0.08000000
1703 -0.06500000
1704 -0.08000000
1705 -0.08000000
1706 -0.08500000
1707 -0.07500000
1708 -0.08500000
1709 -0.07500000
1710 -0.09000000
1711 -0.08000000
1712 -0.04500000
1713 0.00000000
1714 0.04000000
1715 0.07000000
1716 0.18000000
1717 0.14500000
1718 0.05000000
1719 0.00000000
1720 -0.03500000
1721 -0.08500000
1722 -0.18500000
1723 -0.18500000
1724 -0.19000000
1725 -0.17000000
1726 -0.22500000
1727 -0.02500000
1728 0.50000000
1729 1.13000000
1730 1.18500000
1731 -0.07000000
1732 -0.70000000
1733 -0.62000000
1734 -0.35500000
1735 -0.15000000
1736 -0.16000000
1737 -0.14000000
1738 -0.14500000
1739 -0.12000000
1740 -0.11500000
1741 -0.09500000
1742 -0.08500000
1743 -0.07500000
1744 -0.06500000
1745 -0.03000000
1746 -0.01500000
1747 0.01000000
1748 0.03000000
1749 0.08000000
1750 0.10000000
1751 0.14000000
1752 0.17000000
1753 0.21500000
1754 0.23000000
1755 0.24500000
1756 0.24500000
1757 0.26000000
1758 0.24000000
1759 0.22500000
1760 0.18000000
1761 0.16000000
1762 0.11500000
1763 0.06500000
1764 0.04500000
1765 0.04500000
1766 0.01500000
1767 0.00000000
1768 0.00500000
1769 0.00500000
1770 0.01000000
1771 0.00000000
1772 0.00000000
1773 -0.00500000
1774 -0.00500000
1775 -0.01000000
1776 -0.02000000
1777 -0.03000000
1778 -0.03000000
1779 -0.02500000
1780 -0.04000000
1781 -0.03000000
1782 -0.06000000
1783 -0.05000000
1784 -0.04500000
1785 -0.04500000
1786 -0.05500000
1787 -0.06000000
1788 -0.05500000
1789 -0.06500000
1790 -0.06500000
1791 -0.06000000
1792 -0.05500000
1793 -0.06000000
1794 -0.07000000
1795 -0.05500000
1796 -0.07500000
1797 -0.06000000
1798 -0.07500000
1799 -0.07500000
1800 -0.08000000
1801 -0.08000000
1802 -0.09000000
1803 -0.08000000
1804 -0.09000000
1805 -0.07000000
1806 -0.07000000
1807 -0.02000000
1808 0.02500000
1809 0.04500000
1810 0.10000000
1811 0.18500000
1812 0.13000000
1813 0.04000000
1814 -0.03000000
1815 -0.02000000
1816 -0.13000000
1817 -0.15500000
1818 -0.17000000
1819 -0.16500000
1820 -0.18000000
1821 -0.20000000
1822 0.14500000
1823 0.84500000
1824 1.35000000
1825 0.57500000
1826 -0.29500000
1827 -0.66500000
1828 -0.54500000
1829 -0.27500000
1830 -0.16000000
1831 -0.15000000
1832 -0.14500000
1833 -0.13500000
1834 -0.14000000
1835 -0.12500000
1836 -0.10500000
1837 -0.08500000
1838 -0.07000000
1839 -0.05500000
1840 -0.04000000
1841 0.00000000
1842 0.02000000
1843 0.06500000
1844 0.06500000
1845 0.10500000
1846 0.14000000
1847 0.19000000
1848 0.19500000
1849 0.22500000
1850 0.22000000
1851 0.22000000
1852 0.23000000
1853 0.21500000
1854 0.17500000
1855 0.13500000
1856 0.09000000
1857 0.05000000
1858 0.02500000
1859 0.01000000
1860 -0.00500000
1861 -0.01500000
1862 -0.01000000
1863 0.00000000
1864 0.00000000
1865 0.00000000
1866 0.00000000
1867 0.00000000
1868 0.00000000
1869 -0.00500000
1870 0.00000000
1871 -0.02500000
1872 -0.02500000
1873 -0.02500000
1874 -0.02500000
1875 -0.03000000
1876 -0.05000000
1877 -0.03500000
1878 -0.05000000
1879 -0.04500000
1880 -0.05500000
1881 -0.05000000
1882 -0.05500000
1883 -0.05500000
1884 -0.08000000
1885 -0.05000000
1886 -0.06500000
1887 -0.05000000
1888 -0.08000000
1889 -0.07500000
1890 -0.07500000
1891 -0.07500000
1892 -0.08500000
1893 -0.06000000
1894 -0.08000000
1895 -0.08500000
1896 -0.07500000
1897 -0.02000000
1898 0.02000000
1899 0.04500000
1900 0.12500000
1901 0.16500000
1902 0.11500000
1903 0.02000000
1904 -0.04500000
1905 -0.04000000
1906 -0.16500000
1907 -0.18500000
1908 -0.21000000
1909 -0.18000000
1910 -0.20500000
1911 -0.21000000
1912 0.16000000
1913 0.95000000
1914 1.47500000
1915 0.37500000
1916 -0.45000000
1917 -0.70000000
1918 -0.52500000
1919 -0.25000000
1920 -0.17000000
1921 -0.16500000
1922 -0.16500000
1923 -0.13500000
1924 -0.13500000
1925 -0.11000000
1926 -0.11500000
1927 -0.08500000
1928 -0.08000000
1929 -0.04500000
1930 -0.03500000
1931 0.01000000
1932 0.02000000
1933 0.04000000
1934 0.09000000
1935 0.13000000
1936 0.17000000
1937 0.20500000
1938 0.21000000
1939 0.25000000
1940 0.23500000
1941 0.25000000
1942 0.22500000
1943 0.22500000
1944 0.17000000
1945 0.12500000
1946 0.10000000
1947 0.03500000
1948 0.01000000
1949 -0.01500000
1950 -0.02000000
1951 -0.03500000
1952 -0.02500000
1953 -0.03000000
1954 -0.03000000
1955 -0.03000000
1956 -0.03500000
1957 -0.04500000
1958 -0.04000000
1959 -0.03500000
1960 -0.04000000
1961 -0.05500000
1962 -0.05000000
1963 -0.04000000
1964 -0.07000000
1965 -0.06000000
1966 -0.06500000
1967 -0.06000000
1968 -0.09500000
1969 -0.09500000
1970 -0.10000000
1971 -0.06500000
1972 -0.09500000
1973 -0.11500000
1974 -0.09000000
1975 -0.08500000
1976 -0.12000000
1977 -0.08000000
1978 -0.12500000
1979 -0.11500000
1980 -0.10500000
1981 -0.08500000
1982 -0.06500000
1983 0.01000000
1984 0.04000000
1985 0.06000000
1986 0.19500000
1987 0.15500000
1988 0.07500000
1989 0.00000000
1990 -0.03500000
1991 -0.09000000
1992 -0.18500000
1993 -0.18000000
1994 -0.19000000
1995 -0.17000000
1996 -0.23500000
1997 -0.08000000
1998 0.44500000
1999 1.18000000
2000 1.41500000
2001 0.04000000
2002 -0.71000000
2003 -0.67500000
2004 -0.41000000
2005 -0.16500000
2006 -0.17500000
2007 -0.14000000
2008 -0.13000000
2009 -0.11000000
2010 -0.12000000
2011 -0.10000000
2012 -0.08500000
2013 -0.05500000
2014 -0.04500000
2015 -0.01500000
2016 -0.00500000
2017 0.02500000
2018 0.05500000
2019 0.10000000
2020 0.13000000
2021 0.17500000
2022 0.18500000
2023 0.23500000
2024 0.25000000
2025 0.26500000
2026 0.26500000
2027 0.27000000
2028 0.25500000
2029 0.21500000
2030 0.17000000
2031 0.11000000
2032 0.06000000
2033 0.04000000
2034 0.00000000
2035 -0.01000000
2036 -0.02500000
2037 -0.02000000
2038 -0.03000000
2039 -0.04000000
2040 -0.04000000
2041 -0.03000000
2042 -0.02000000
2043 -0.03000000
2044 -0.03500000
2045 -0.03500000
2046 -0.04000000
2047 -0.05500000
2048 -0.04500000
2049 -0.06500000
2050 -0.06500000
2051 -0.07500000
2052 -0.07000000
2053 -0.08000000
2054 -0.08000000
2055 -0.09000000
2056 -0.08000000
2057 -0.09000000
2058 -0.09500000
2059 -0.10000000
2060 -0.09500000
2061 -0.10000000
2062 -0.10000000
2063 -0.11000000
2064 -0.10500000
2065 -0.11000000
2066 -0.10500000
2067 -0.09000000
2068 -0.02500000
2069 0.03000000
2070 0.01500000
2071 0.09500000
2072 0.13000000
2073 0.08500000
2074 0.00500000
2075 -0.05000000
2076 -0.06000000
2077 -0.17500000
2078 -0.21000000
2079 -0.21000000
2080 -0.20500000
2081 -0.21000000
2082 -0.24500000
2083 0.06500000
2084 0.89000000
2085 1.57500000
2086 0.78500000
2087 -0.38000000
2088 -0.71500000
2089 -0.47500000
2090 -0.22500000
2091 -0.18000000
2092 -0.17500000
2093 -0.16500000
2094 -0.15500000
2095 -0.14500000
2096 -0.12500000
2097 -0.11500000
2098 -0.09000000
2099 -0.07500000
2100 -0.04500000
2101 -0.02000000
2102 0.00000000
2103 0.03500000
2104 0.07000000
2105 0.11000000
2106 0.15000000
2107 0.19000000
2108 0.23000000
2109 0.26000000
2110 0.27000000
2111 0.27500000
2112 0.28000000
2113 0.27000000
2114 0.24000000
2115 0.19500000
2116 0.14500000
2117 0.09500000
2118 0.05500000
2119 0.02500000
2120 0.00000000
2121 -0.00500000
2122 -0.01000000
2123 -0.01000000
2124 -0.00500000
2125 -0.00500000
2126 -0.00500000
2127 0.00000000
2128 0.00000000
2129 0.00000000
2130 0.00000000
2131 -0.01000000
2132 -0.01500000
2133 -0.02000000
2134 -0.02500000
2135 -0.03500000
2136 -0.04000000
2137 -0.05000000
2138 -0.05500000
2139 -0.06000000
2140 -0.06500000
2141 -0.06500000
2142 -0.06500000
2143 -0.06500000
2144 -0.07500000
2145 -0.06500000
2146 -0.07500000
2147 -0.07500000
2148 -0.07500000
2149 -0.07500000
2150 -0.08000000
2151 -0.07500000
2152 -0.08500000
2153 -0.07000000
2154 -0.08000000
2155 -0.07000000
2156 -0.08000000
2157 -0.08000000
2158 -0.09000000
2159 -0.08000000
2160 -0.09000000
2161 -0.08000000
2162 -0.09500000
2163 -0.08500000
2164 -0.06000000
2165 -0.01000000
2166 0.03500000
2167 0.03000000
2168 0.12500000
2169 0.14000000
2170 0.09000000
2171 0.01500000
2172 -0.03000000
2173 -0.03500000
2174 -0.16000000
2175 -0.18500000
2176 -0.18500000
2177 -0.15000000
2178 -0.18500000
2179 -0.19500000
2180 0.15000000
2181 1.06500000
2182 1.71500000
2183 0.38000000
2184 -0.62000000
2185 -0.63000000
2186 -0.39000000
2187 -0.16000000
2188 -0.16500000
2189 -0.15000000
2190 -0.16000000
2191 -0.13500000
2192 -0.13500000
2193 -0.13000000
2194 -0.11000000
2195 -0.08500000
2196 -0.07000000
2197 -0.03500000
2198 -0.02500000
2199 0.00000000
2200 0.03000000
2201 0.08500000
2202 0.09500000
2203 0.15000000
2204 0.17500000
2205 0.22500000
2206 0.24000000
2207 0.25500000
2208 0.27500000
2209 0.27500000
2210 0.26500000
2211 0.26000000
2212 0.21000000
2213 0.17500000
2214 0.11000000
2215 0.07000000
2216 0.04000000
2217 0.02500000
2218 0.00000000
2219 -0.01000000
2220 -0.00500000
2221 -0.00500000
2222 -0.02000000
2223 -0.01000000
2224 -0.02000000
2225 -0.00500000
2226 0.00000000
2227 -0.03000000
2228 -0.02000000
2229 -0.02500000
2230 -0.01500000
2231 -0.04000000
2232 -0.03500000
2233 -0.04500000
2234 -0.05500000
2235 -0.04500000
2236 -0.06000000
2237 -0.06000000
2238 -0.05500000
2239 -0.07000000
2240 -0.06000000
2241 -0.07000000
2242 -0.06000000
2243 -0.08500000
2244 -0.08000000
2245 -0.07000000
2246 -0.06500000
2247 -0.08000000
2248 -0.08500000
2249 -0.08000000
2250 -0.10500000
2251 -0.09000000
2252 -0.08000000
2253 -0.08500000
2254 -0.10000000
2255 -0.09000000
2256 -0.10000000
2257 -0.08000000
2258 -0.02000000
2259 0.00500000
2260 0.03000000
2261 0.09000000
2262 0.17000000
2263 0.12500000
2264 0.04000000
2265 -0.03500000
2266 -0.02500000
2267 -0.15500000
2268 -0.19500000
2269 -0.20000000
2270 -0.18500000
2271 -0.19500000
2272 -0.20500000
2273 0.11500000
2274 0.78000000
2275 1.26500000
2276 0.59500000
2277 -0.28500000
2278 -0.72000000
2279 -0.61500000
2280 -0.33000000
2281 -0.18000000
2282 -0.16500000
2283 -0.15000000
2284 -0.14000000
2285 -0.14000000
2286 -0.12500000
2287 -0.11500000
2288 -0.08500000
2289 -0.05500000
2290 -0.03500000
2291 -0.02500000
2292 0.00500000
2293 0.01000000
2294 0.06000000
2295 0.08000000
2296 0.10000000
2297 0.14500000
2298 0.17000000
2299 0.21000000
2300 0.23000000
2301 0.23000000
2302 0.25000000
2303 0.23500000
2304 0.22000000
2305 0.19500000
2306 0.16500000
2307 0.12500000
2308 0.07000000
2309 0.04000000
2310 0.02500000
2311 0.00500000
2312 -0.00500000
2313 -0.01000000
2314 0.00000000
2315 0.00500000
2316 0.00000000
2317 0.00000000
2318 -0.00500000
2319 -0.01000000
2320 -0.01000000
2321 -0.03000000
2322 -0.03000000
2323 -0.02000000
2324 -0.02000000
2325 -0.05000000
2326 -0.05000000
2327 -0.06500000
2328 -0.05500000
2329 -0.06500000
2330 -0.06500000
2331 -0.07000000
2332 -0.07000000
2333 -0.08000000
2334 -0.08500000
2335 -0.08500000
2336 -0.08000000
2337 -0.07500000
2338 -0.06500000
2339 -0.09000000
2340 -0.10500000
2341 -0.07000000
2342 -0.10500000
2343 -0.07500000
2344 -0.09500000
2345 -0.07000000
2346 -0.09500000
2347 -0.08500000
2348 -0.09000000
2349 -0.07000000
2350 -0.07000000
2351 -0.00500000
2352 0.02000000
2353 0.04500000
2354 0.13500000
2355 0.20000000
2356 0.11500000
2357 0.03000000
2358 -0.03000000
2359 -0.03500000
2360 -0.17000000
2361 -0.17500000
2362 -0.17500000
2363 -0.17000000
2364 -0.20500000
2365 -0.16500000
2366 0.26500000
2367 1.07500000
2368 1.57000000
2369 0.21000000
2370 -0.57000000
2371 -0.71000000
2372 -0.51000000
2373 -0.24000000
2374 -0.17000000
2375 -0.15500000
2376 -0.14500000
2377 -0.13500000
2378 -0.12500000
2379 -0.10500000
2380 -0.11000000
2381 -0.05500000
2382 -0.07500000
2383 -0.01500000
2384 -0.03000000
2385 0.02500000
2386 0.03000000
2387 0.06000000
2388 0.10000000
2389 0.15500000
2390 0.17000000
2391 0.22500000
2392 0.24000000
2393 0.27500000
2394 0.25500000
2395 0.25000000
2396 0.25000000
2397 0.22000000
2398 0.18500000
2399 0.14000000
2400 0.08000000
2401 0.06000000
2402 0.01000000
2403 0.00000000
2404 -0.01000000
2405 -0.03500000
2406 -0.01500000
2407 -0.02000000
2408 -0.02000000
2409 -0.01500000
2410 -0.00500000
2411 0.00000000
2412 -0.03000000
2413 -0.01500000
2414 -0.03000000
2415 -0.04000000
2416 -0.03500000
2417 -0.05000000
2418 -0.05500000
2419 -0.06000000
2420 -0.07500000
2421 -0.08000000
2422 -0.09000000
2423 -0.07000000
2424 -0.07500000
2425 -0.08000000
2426 -0.09500000
2427 -0.08500000
2428 -0.10000000
2429 -0.09000000
2430 -0.10000000
2431 -0.10000000
2432 -0.12000000
2433 -0.13500000
2434 -0.10000000
2435 -0.01500000
2436 0.01000000
2437 0.03500000
2438 0.12000000
2439 0.17000000
2440 0.08500000
2441 -0.00500000
2442 -0.06000000
2443 -0.05500000
2444 -0.19500000
2445 -0.21500000
2446 -0.22000000
2447 -0.20000000
2448 -0.25000000
2449 -0.14500000
2450 0.31000000
2451 1.20000000
2452 1.64500000
2453 0.05500000
2454 -0.75000000
2455 -0.79500000
2456 -0.50500000
2457 -0.24000000
2458 -0.21000000
2459 -0.14000000
2460 -0.17000000
2461 -0.14000000
2462 -0.16500000
2463 -0.12000000
2464 -0.11500000
2465 -0.07500000
2466 -0.07500000
2467 -0.05000000
2468 0.00000000
2469 -0.02000000
2470 0.04500000
2471 0.06500000
2472 0.11500000
2473 0.16500000
2474 0.19000000
2475 0.24500000
2476 0.25500000
2477 0.25000000
2478 0.26000000
2479 0.28500000
2480 0.26500000
2481 0.18500000
2482 0.17000000
2483 0.09500000
2484 0.05500000
2485 0.03000000
2486 -0.05000000
2487 -0.02500000
2488 -0.06000000
2489 -0.04500000
2490 -0.06000000
2491 -0.07000000
2492 -0.06500000
2493 -0.05000000
2494 -0.05000000
2495 -0.05500000
2496 -0.04000000
2497 -0.04500000
2498 -0.05000000
2499 -0.05000000
2500 -0.07000000
2501 -0.09500000
2502 -0.07500000
2503 -0.08000000
2504 -0.09500000
2505 -0.08500000
2506 -0.10000000
2507 -0.09500000
2508 -0.12500000
2509 -0.10000000
2510 -0.10000000
2511 -0.09000000
2512 -0.05500000
2513 0.01500000
2514 0.02000000
2515 0.06000000
2516 0.16000000
2517 0.14000000
2518 0.03500000
2519 -0.02500000
2520 -0.03500000
2521 -0.12500000
2522 -0.21500000
2523 -0.21000000
2524 -0.19000000
2525 -0.20500000
2526 -0.26500000
2527 -0.00500000
2528 0.74500000
2529 1.48000000
2530 1.13000000
2531 -0.27500000
2532 -0.85500000
2533 -0.65000000
2534 -0.35500000
2535 -0.17500000
2536 -0.17500000
2537 -0.15500000
2538 -0.15000000
2539 -0.15000000
2540 -0.13500000
2541 -0.12000000
2542 -0.07500000
2543 -0.08500000
2544 -0.05500000
2545 -0.02000000
2546 0.00000000
2547 0.01000000
2548 0.06500000
2549 0.09500000
2550 0.12000000
2551 0.21000000
2552 0.23000000
2553 0.26500000
2554 0.28500000
2555 0.29000000
2556 0.30000000
2557 0.27500000
2558 0.24000000
2559 0.18000000
2560 0.14000000
2561 0.07000000
2562 0.00500000
2563 -0.01000000
2564 -0.03000000
2565 -0.06500000
2566 -0.07000000
2567 -0.07000000
2568 -0.07500000
2569 -0.08000000
2570 -0.06000000
2571 -0.06000000
2572 -0.06000000
2573 -0.05500000
2574 -0.05500000
2575 -0.05500000
2576 -0.06000000
2577 -0.07000000
2578 -0.08000000
2579 -0.08000000
2580 -0.08000000
2581 -0.11000000
2582 -0.10000000
2583 -0.11000000
2584 -0.09500000
2585 -0.11000000
2586 -0.12500000
2587 -0.13500000
2588 -0.08500000
2589 -0.06000000
2590 0.00500000
2591 0.01500000
2592 0.04500000
2593 0.14500000
2594 0.13500000
2595 0.03000000
2596 -0.03000000
2597 -0.06500000
2598 -0.12000000
2599 -0.22500000
2600 -0.22000000
2601 -0.22500000
2602 -0.21500000
2603 -0.25500000
2604 -0.05000000
2605 0.61500000
2606 1.46500000
2607 1.47500000
2608 -0.18500000
2609 -0.88500000
2610 -0.61500000
2611 -0.33500000
2612 -0.17000000
2613 -0.17500000
2614 -0.16000000
2615 -0.15000000
2616 -0.14000000
2617 -0.15500000
2618 -0.13000000
2619 -0.11500000
2620 -0.06000000
2621 -0.07000000
2622 -0.04000000
2623 -0.02500000
2624 0.02000000
2625 0.04000000
2626 0.09000000
2627 0.12000000
2628 0.18000000
2629 0.22500000
2630 0.25500000
2631 0.28500000
2632 0.30000000
2633 0.30000000
2634 0.29000000
2635 0.23500000
2636 0.20000000
2637 0.14000000
2638 0.09000000
2639 0.03500000
2640 0.00500000
2641 -0.02500000
2642 -0.04000000
2643 -0.05000000
2644 -0.04000000
2645 -0.04500000
2646 -0.04500000
2647 -0.04000000
2648 -0.04000000
2649 -0.04500000
2650 -0.04500000
2651 -0.05000000
2652 -0.04000000
2653 -0.06500000
2654 -0.05500000
2655 -0.06500000
2656 -0.07000000
2657 -0.08000000
2658 -0.08000000
2659 -0.09500000
2660 -0.07500000
2661 -0.09000000
2662 -0.10500000
2663 -0.11500000
2664 -0.10500000
2665 -0.12500000
2666 -0.10000000
2667 -0.11500000
2668 -0.10500000
2669 -0.07000000
2670 -0.00500000
2671 0.03000000
2672 0.03500000
2673 0.12500000
2674 0.14500000
2675 0.08000000
2676 0.02500000
2677 -0.05000000
2678 -0.06000000
2679 -0.19000000
2680 -0.20000000
2681 -0.21000000
2682 -0.20500000
2683 -0.22500000
2684 -0.23500000
2685 0.15500000
2686 1.09000000
2687 1.75000000
2688 0.42000000
2689 -0.57500000
2690 -0.67000000
2691 -0.42000000
2692 -0.17500000
2693 -0.17500000
2694 -0.15500000
2695 -0.16500000
2696 -0.14500000
2697 -0.15500000
2698 -0.12000000
2699 -0.12500000
2700 -0.08500000
2701 -0.08000000
2702 -0.04500000
2703 -0.04000000
2704 0.00000000
2705 0.02500000
2706 0.06500000
2707 0.09000000
2708 0.15000000
2709 0.18000000
2710 0.22500000
2711 0.24000000
2712 0.26500000
2713 0.27500000
2714 0.28000000
2715 0.26000000
2716 0.23500000
2717 0.18000000
2718 0.12500000
2719 0.07000000
2720 0.03000000
2721 0.00000000
2722 -0.02000000
2723 -0.03000000
2724 -0.03000000
2725 -0.03500000
2726 -0.03000000
2727 -0.03000000
2728 -0.03500000
2729 -0.02500000
2730 -0.03500000
2731 -0.03500000
2732 -0.03000000
2733 -0.04000000
2734 -0.05500000
2735 -0.06000000
2736 -0.08000000
2737 -0.07500000
2738 -0.08000000
2739 -0.08000000
2740 -0.09000000
2741 -0.09000000
2742 -0.10500000
2743 -0.10000000
2744 -0.10500000
2745 -0.10000000
2746 -0.10500000
2747 -0.10000000
2748 -0.10500000
2749 -0.10000000
2750 -0.07500000
2751 -0.00500000
2752 0.04000000
2753 0.00500000
2754 0.11500000
2755 0.13500000
2756 0.10000000
2757 0.00500000
2758 -0.06000000
2759 -0.07000000
2760 -0.18000000
2761 -0.21500000
2762 -0.21500000
2763 -0.20000000
2764 -0.20500000
2765 -0.24500000
2766 0.06000000
2767 0.89000000
2768 1.58000000
2769 0.70000000
2770 -0.47000000
2771 -0.68500000
2772 -0.41000000
2773 -0.19000000
2774 -0.18500000
2775 -0.17500000
2776 -0.17000000
2777 -0.15000000
2778 -0.14000000
2779 -0.13000000
2780 -0.12000000
2781 -0.09500000
2782 -0.07000000
2783 -0.04500000
2784 -0.02500000
2785 -0.00500000
2786 0.02500000
2787 0.05000000
2788 0.08500000
2789 0.13500000
2790 0.18000000
2791 0.21000000
2792 0.24000000
2793 0.27000000
2794 0.26000000
2795 0.27000000
2796 0.27000000
2797 0.24000000
2798 0.19000000
2799 0.14000000
2800 0.09500000
2801 0.05500000
2802 0.01500000
2803 -0.00500000
2804 -0.00500000
2805 -0.01000000
2806 -0.01000000
2807 -0.02000000
2808 -0.01500000
2809 -0.01000000
2810 -0.02000000
2811 -0.02500000
2812 -0.02000000
2813 -0.03500000
2814 -0.03000000
2815 -0.02500000
2816 -0.05500000
2817 -0.05500000
2818 -0.05500000
2819 -0.06500000
2820 -0.07000000
2821 -0.06000000
2822 -0.07500000
2823 -0.08000000
2824 -0.09500000
2825 -0.08000000
2826 -0.09500000
2827 -0.09000000
2828 -0.09000000
2829 -0.09500000
2830 -0.10000000
2831 -0.09000000
2832 -0.11000000
2833 -0.08500000
2834 -0.06000000
2835 -0.01500000
2836 0.03000000
2837 0.04500000
2838 0.13000000
2839 0.16000000
2840 0.09500000
2841 0.04500000
2842 -0.03500000
2843 -0.04000000
2844 -0.17500000
2845 -0.19000000
2846 -0.19500000
2847 -0.19500000
2848 -0.20000000
2849 -0.21000000
2850 0.12500000
2851 0.86500000
2852 1.45000000
2853 0.45000000
2854 -0.48000000
2855 -0.72000000
2856 -0.53500000
2857 -0.23500000
2858 -0.18000000
2859 -0.17000000
2860 -0.16000000
2861 -0.16000000
2862 -0.14500000
2863 -0.14000000
2864 -0.12500000
2865 -0.08000000
2866 -0.08500000
2867 -0.06000000
2868 -0.04000000
2869 0.00500000
2870 0.02000000
2871 0.04500000
2872 0.08500000
2873 0.13500000
2874 0.15500000
2875 0.19500000
2876 0.21500000
2877 0.23000000
2878 0.27000000
2879 0.26500000
2880 0.26000000
2881 0.23500000
2882 0.17500000
2883 0.16000000
2884 0.09000000
2885 0.05000000
2886 0.02000000
2887 0.01000000
2888 -0.01500000
2889 -0.02500000
2890 -0.01500000
2891 -0.02000000
2892 -0.00500000
2893 -0.03000000
2894 -0.00500000
2895 -0.01500000
2896 -0.03000000
2897 -0.02000000
2898 -0.03000000
2899 -0.01000000
2900 -0.04500000
2901 -0.06500000
2902 -0.07000000
2903 -0.07500000
2904 -0.05500000
2905 -0.07000000
2906 -0.08500000
2907 -0.06500000
2908 -0.10000000
2909 -0.06000000
2910 -0.10500000
2911 -0.08000000
2912 -0.09500000
2913 -0.09500000
2914 -0.10000000
2915 -0.09000000
2916 -0.11000000
2917 -0.08500000
2918 -0.07000000
2919 -0.00500000
2920 0.02500000
2921 0.05500000
2922 0.14000000
2923 0.15500000
2924 0.09000000
2925 0.02000000
2926 -0.03500000
2927 -0.07500000
2928 -0.16500000
2929 -0.19500000
2930 -0.21000000
2931 -0.20500000
2932 -0.22500000
2933 -0.17000000
2934 0.22000000
2935 1.05500000
2936 1.54500000
2937 0.19000000
2938 -0.65000000
2939 -0.76500000
2940 -0.53500000
2941 -0.23500000
2942 -0.19500000
2943 -0.13500000
2944 -0.16000000
2945 -0.13500000
2946 -0.14000000
2947 -0.12000000
2948 -0.09500000
2949 -0.08000000
2950 -0.06500000
2951 -0.03500000
2952 -0.01000000
2953 0.00000000
2954 0.02000000
2955 0.06000000
2956 0.10000000
2957 0.14000000
2958 0.16000000
2959 0.21000000
2960 0.22500000
2961 0.23000000
2962 0.26500000
2963 0.24000000
2964 0.24000000
2965 0.22500000
2966 0.16500000
2967 0.12000000
2968 0.08500000
2969 0.04000000
2970 0.00000000
2971 0.00000000
2972 -0.02500000
2973 -0.01000000
2974 -0.02500000
2975 -0.05000000
2976 -0.01000000
2977 -0.02500000
2978 -0.03000000
2979 -0.01000000
2980 -0.04000000
2981 -0.04000000
2982 -0.04000000
2983 -0.02500000
2984 -0.06500000
2985 -0.05500000
2986 -0.07500000
2987 -0.06500000
2988 -0.08500000
2989 -0.08000000
2990 -0.07000000
2991 -0.08500000
2992 -0.10000000
2993 -0.09000000
2994 -0.09000000
2995 -0.10000000
2996 -0.11000000
2997 -0.10000000
2998 -0.09000000
2999 -0.07000000
3000 -0.04500000
3001 0.00000000
3002 0.03500000
3003 0.06000000
3004 0.18500000
3005 0.16000000
3006 0.06500000
3007 0.03000000
3008 -0.04000000
3009 -0.11000000
3010 -0.18000000
3011 -0.19500000
3012 -0.20500000
3013 -0.18500000
3014 -0.24000000
3015 -0.05000000
3016 0.58000000
3017 1.33000000
3018 1.29000000
3019 -0.15000000
3020 -0.84000000
3021 -0.70500000
3022 -0.39500000
3023 -0.19000000
3024 -0.17500000
3025 -0.15500000
3026 -0.18500000
3027 -0.12500000
3028 -0.14500000
3029 -0.12000000
3030 -0.09000000
3031 -0.07500000
3032 -0.05000000
3033 -0.03500000
3034 -0.01000000
3035 0.02500000
3036 0.03000000
3037 0.10500000
3038 0.11500000
3039 0.16500000
3040 0.20000000
3041 0.23500000
3042 0.26000000
3043 0.26500000
3044 0.26500000
3045 0.28500000
3046 0.24000000
3047 0.20000000
3048 0.16000000
3049 0.11000000
3050 0.07000000
3051 0.01500000
3052 -0.01000000
3053 -0.01500000
3054 -0.02500000
3055 -0.04000000
3056 -0.03000000
3057 -0.02000000
3058 -0.03000000
3059 -0.02500000
3060 -0.02000000
3061 -0.03000000
3062 -0.03500000
3063 -0.03000000
3064 -0.04000000
3065 -0.05000000
3066 -0.06500000
3067 -0.05500000
3068 -0.06500000
3069 -0.06500000
3070 -0.08500000
3071 -0.08000000
3072 -0.10500000
3073 -0.08500000
3074 -0.09500000
3075 -0.08500000
3076 -0.11500000
3077 -0.10000000
3078 -0.11500000
3079 -0.09000000
3080 -0.12500000
3081 -0.10500000
3082 -0.06500000
3083 0.00000000
3084 0.02000000
3085 0.05500000
3086 0.16500000
3087 0.14000000
3088 0.05000000
3089 0.00000000
3090 -0.04500000
3091 -0.09500000
3092 -0.19500000
3093 -0.20500000
3094 -0.22500000
3095 -0.19500000
3096 -0.23000000
3097 -0.09500000
3098 0.45500000
3099 1.34500000
3100 1.60500000
3101 -0.07500000
3102 -0.84500000
3103 -0.63500000
3104 -0.36500000
3105 -0.16000000
3106 -0.17000000
3107 -0.15000000
3108 -0.16000000
3109 -0.13500000
3110 -0.13000000
3111 -0.10500000
3112 -0.10000000
3113 -0.07000000
3114 -0.05500000
3115 -0.03000000
3116 -0.01500000
3117 0.02000000
3118 0.05500000
3119 0.08500000
3120 0.10500000
3121 0.17500000
3122 0.19500000
3123 0.23500000
3124 0.25500000
3125 0.25500000
3126 0.27000000
3127 0.27000000
3128 0.25000000
3129 0.22000000
3130 0.18000000
3131 0.12000000
3132 0.06500000
3133 0.03500000
3134 0.01500000
3135 0.00000000
3136 -0.01500000
3137 -0.01000000
3138 -0.02000000
3139 -0.00500000
3140 -0.00500000
3141 -0.00500000
3142 0.00000000
3143 0.00000000
3144 -0.00500000
3145 -0.02000000
3146 -0.02000000
3147 -0.01500000
3148 -0.03000000
3149 -0.04500000
3150 -0.05000000
3151 -0.06500000
3152 -0.07500000
3153 -0.06500000
3154 -0.07000000
3155 -0.08500000
3156 -0.08000000
3157 -0.08000000
3158 -0.08500000
3159 -0.07500000
3160 -0.08000000
3161 -0.09500000
3162 -0.09000000
3163 -0.08500000
3164 -0.07500000
3165 -0.09500000
3166 -0.09500000
3167 -0.09500000
3168 -0.09500000
3169 -0.10000000
3170 -0.11000000
3171 -0.08000000
3172 -0.02500000
3173 0.02500000
3174 0.02000000
3175 0.09500000
3176 0.15500000
3177 0.11000000
3178 0.01500000
3179 -0.02500000
3180 -0.03500000
3181 -0.15000000
3182 -0.19000000
3183 -0.19500000
3184 -0.19500000
3185 -0.20000000
3186 -0.23500000
3187 0.06500000
3188 0.87000000
3189 1.57500000
3190 0.80000000
3191 -0.39500000
3192 -0.74000000
3193 -0.48000000
3194 -0.22000000
3195 -0.17500000
3196 -0.16500000
3197 -0.14500000
3198 -0.13500000
3199 -0.14000000
3200 -0.12000000
3201 -0.11000000
3202 -0.08000000
3203 -0.06500000
3204 -0.05000000
3205 -0.03000000
3206 0.00000000
3207 0.02000000
3208 0.05500000
3209 0.08000000
3210 0.11500000
3211 0.16000000
3212 0.19000000
3213 0.21500000
3214 0.24000000
3215 0.24500000
3216 0.25000000
3217 0.25000000
3218 0.23500000
3219 0.20500000
3220 0.16500000
3221 0.12500000
3222 0.08000000
3223 0.04500000
3224 0.03000000
3225 0.01500000
3226 0.01000000
3227 0.01000000
3228 0.00500000
3229 0.01000000
3230 0.00500000
3231 0.01000000
3232 0.00000000
3233 0.00000000
3234 -0.00500000
3235 -0.01500000
3236 -0.01500000
3237 -0.02000000
3238 -0.03000000
3239 -0.04000000
3240 -0.04000000
3241 -0.05000000
3242 -0.05000000
3243 -0.05500000
3244 -0.05500000
3245 -0.06500000
3246 -0.06500000
3247 -0.06000000
3248 -0.06000000
3249 -0.06000000
3250 -0.07000000
3251 -0.07500000
3252 -0.06500000
3253 -0.07000000
3254 -0.06500000
3255 -0.07000000
3256 -0.07000000
3257 -0.08000000
3258 -0.07500000
3259 -0.08000000
3260 -0.07000000
3261 -0.08000000
3262 -0.07500000
3263 -0.08500000
3264 -0.07500000
3265 -0.09000000
3266 -0.07500000
3267 -0.09000000
3268 -0.07500000
3269 -0.09000000
3270 -0.07500000
3271 -0.05500000
3272 0.00000000
3273 0.03500000
3274 0.03500000
3275 0.12500000
3276 0.15500000
3277 0.09500000
3278 0.01500000
3279 -0.03000000
3280 -0.03000000
3281 -0.15500000
3282 -0.17000000
3283 -0.18500000
3284 -0.17500000
3285 -0.19500000
3286 -0.18500000
3287 0.19000000
3288 1.10500000
3289 1.68500000
3290 0.19500000
3291 -0.65000000
3292 -0.62000000
3293 -0.38500000
3294 -0.14500000
3295 -0.15500000
3296 -0.13500000
3297 -0.14500000
3298 -0.12500000
3299 -0.13500000
3300 -0.11500000
3301 -0.11000000
3302 -0.06500000
3303 -0.05500000
3304 -0.03000000
3305 -0.02000000
3306 0.01500000
3307 0.04000000
3308 0.08000000
3309 0.09500000
3310 0.13000000
3311 0.15000000
3312 0.19000000
3313 0.21000000
3314 0.21500000
3315 0.22000000
3316 0.23500000
3317 0.23000000
3318 0.22500000
3319 0.19500000
3320 0.17000000
3321 0.13000000
3322 0.09000000
3323 0.05500000
3324 0.04000000
3325 0.02000000
3326 0.01000000
3327 0.01000000
3328 0.00500000
3329 0.01500000
3330 0.01000000
3331 0.01000000
3332 0.00000000
3333 0.00000000
3334 0.00000000
3335 0.00000000
3336 -0.01500000
3337 -0.02000000
3338 -0.03000000
3339 -0.03500000
3340 -0.04500000
3341 -0.04500000
3342 -0.05500000
3343 -0.04000000
3344 -0.05500000
3345 -0.05000000
3346 -0.05500000
3347 -0.04000000
3348 -0.06500000
3349 -0.06000000
3350 -0.06000000
3351 -0.05000000
3352 -0.07000000
3353 -0.06500000
3354 -0.07000000
3355 -0.05500000
3356 -0.08000000
3357 -0.06500000
3358 -0.08500000
3359 -0.06000000
3360 -0.08500000
3361 -0.07500000
3362 -0.09500000
3363 -0.06500000
3364 -0.04500000
3365 0.00500000
3366 0.05000000
3367 0.06500000
3368 0.16500000
3369 0.17000000
3370 0.09500000
3371 0.02500000
3372 -0.04000000
3373 -0.03500000
3374 -0.17000000
3375 -0.17000000
3376 -0.20000000
3377 -0.17000000
3378 -0.19500000
3379 -0.13500000
3380 0.26500000
3381 1.06500000
3382 1.55500000
3383 0.07000000
3384 -0.69500000
3385 -0.65500000
3386 -0.41500000
3387 -0.17000000
3388 -0.16000000
3389 -0.14500000
3390 -0.14500000
3391 -0.12500000
3392 -0.14000000
3393 -0.10000000
3394 -0.11000000
3395 -0.08000000
3396 -0.06500000
3397 -0.02000000
3398 -0.01500000
3399 0.01500000
3400 0.02500000
3401 0.06500000
3402 0.10500000
3403 0.12500000
3404 0.16000000
3405 0.18000000
3406 0.20000000
3407 0.23000000
3408 0.20500000
3409 0.23000000
3410 0.21500000
3411 0.20500000
3412 0.16500000
3413 0.15000000
3414 0.09000000
3415 0.06000000
3416 0.03000000
3417 0.01500000
3418 0.01500000
3419 0.00000000
3420 0.00000000
3421 0.00000000
3422 -0.01000000
3423 0.00500000
3424 -0.00500000
3425 0.00000000
3426 -0.02500000
3427 -0.02500000
3428 -0.03000000
3429 -0.04000000
3430 -0.04000000
3431 -0.04500000
3432 -0.05500000
3433 -0.05500000
3434 -0.06000000
3435 -0.05500000
3436 -0.06500000
3437 -0.07000000
3438 -0.07000000
3439 -0.08000000
3440 -0.08000000
3441 -0.07500000
3442 -0.08000000
3443 -0.08500000
3444 -0.09500000
3445 -0.08000000
3446 -0.08500000
3447 -0.10000000
3448 -0.08500000
3449 -0.09000000
3450 -0.10000000
3451 -0.10000000
3452 -0.10000000
3453 -0.02500000
3454 0.01500000
3455 0.02000000
3456 0.08000000
3457 0.18500000
3458 0.12000000
3459 0.05500000
3460 -0.01500000
3461 -0.02500000
3462 -0.14500000
3463 -0.17000000
3464 -0.20000000
3465 -0.19500000
3466 -0.19000000
3467 -0.23500000
3468 0.06000000
3469 0.73000000
3470 1.30500000
3471 0.72500000
3472 -0.23500000
3473 -0.72000000
3474 -0.61500000
3475 -0.33000000
3476 -0.18000000
3477 -0.15500000
3478 -0.16000000
3479 -0.13500000
3480 -0.14000000
3481 -0.11000000
3482 -0.10000000
3483 -0.08000000
3484 -0.06500000
3485 -0.04000000
3486 -0.01000000
3487 0.01000000
3488 0.03000000
3489 0.05000000
3490 0.07500000
3491 0.12500000
3492 0.15000000
3493 0.17000000
3494 0.19500000
3495 0.21500000
3496 0.21500000
3497 0.23500000
3498 0.22000000
3499 0.22500000
3500 0.19000000
3501 0.14500000
3502 0.12500000
3503 0.08500000
3504 0.06500000
3505 0.00500000
3506 -0.00500000
3507 0.00000000
3508 0.01000000
3509 0.00500000
3510 -0.00500000
3511 -0.03000000
3512 -0.02500000
3513 -0.01000000
3514 -0.01500000
3515 -0.01500000
3516 -0.04500000
3517 -0.04000000
3518 -0.03000000
3519 -0.04500000
3520 -0.06500000
3521 -0.07500000
3522 -0.06000000
3523 -0.06000000
3524 -0.08000000
3525 -0.07500000
3526 -0.08500000
3527 -0.06500000
3528 -0.08000000
3529 -0.09000000
3530 -0.08500000
3531 -0.06500000
3532 -0.09000000
3533 -0.08500000
3534 -0.10000000
3535 -0.09000000
3536 -0.09000000
3537 -0.09000000
3538 -0.09500000
3539 -0.03000000
3540 0.04000000
3541 0.03500000
3542 0.08500000
3543 0.20000000
3544 0.14500000
3545 0.05000000
3546 -0.01000000
3547 -0.02500000
3548 -0.13000000
3549 -0.15000000
3550 -0.20000000
3551 -0.19000000
3552 -0.17000000
3553 -0.21500000
3554 0.06500000
3555 0.83000000
3556 1.44000000
3557 0.70500000
3558 -0.32000000
3559 -0.77500000
3560 -0.61000000
3561 -0.32500000
3562 -0.18000000
3563 -0.14500000
3564 -0.15500000
3565 -0.13000000
3566 -0.13000000
3567 -0.12000000
3568 -0.10000000
3569 -0.07500000
3570 -0.07500000
3571 -0.03500000
3572 -0.03500000
3573 0.00500000
3574 0.03000000
3575 0.05000000
3576 0.07000000
3577 0.12500000
3578 0.15000000
3579 0.20500000
3580 0.20000000
3581 0.21500000
3582 0.23500000
3583 0.22500000
3584 0.23500000
3585 0.20500000
3586 0.19000000
3587 0.15000000
3588 0.09500000
3589 0.07500000
3590 0.03500000
3591 0.01500000
3592 0.00000000
3593 -0.01500000
3594 -0.00500000
3595 -0.01500000
3596 -0.02000000
3597 0.00000000
3598 -0.01500000
3599 -0.01000000
3600 -0.02000000
3601 -0.02500000
3602 -0.03500000
3603 -0.02000000
3604 -0.04000000
3605 -0.05500000
3606 -0.05500000
3607 -0.05500000
3608 -0.06000000
3609 -0.07000000
3610 -0.06500000
3611 -0.07000000
3612 -0.06500000
3613 -0.06500000
3614 -0.08500000
3615 -0.06500000
3616 -0.07500000
3617 -0.09500000
3618 -0.09500000
3619 -0.09000000
3620 -0.08500000
3621 -0.10000000
3622 -0.08500000
3623 -0.07500000
3624 -0.02500000
3625 0.02000000
3626 0.03000000
3627 0.08500000
3628 0.19500000
3629 0.14500000
3630 0.04500000
3631 -0.01500000
3632 -0.04000000
3633 -0.13500000
3634 -0.20000000
3635 -0.22000000
3636 -0.20000000
3637 -0.20500000
3638 -0.26000000
3639 0.04000000
3640 0.77500000
3641 1.44000000
3642 0.90500000
3643 -0.28000000
3644 -0.79000000
3645 -0.60000000
3646 -0.31500000
3647 -0.17000000
3648 -0.16500000
3649 -0.16000000
3650 -0.14000000
3651 -0.14000000
3652 -0.13500000
3653 -0.12500000
3654 -0.09000000
3655 -0.07500000
3656 -0.04000000
3657 -0.03000000
3658 0.00500000
3659 0.02500000
3660 0.04000000
3661 0.08500000
3662 0.11500000
3663 0.15500000
3664 0.20000000
3665 0.22000000
3666 0.23000000
3667 0.24000000
3668 0.25000000
3669 0.26000000
3670 0.24500000
3671 0.20000000
3672 0.16000000
3673 0.11500000
3674 0.07000000
3675 0.04000000
3676 0.01000000
3677 0.00000000
3678 -0.00500000
3679 -0.01000000
3680 -0.01500000
3681 0.00000000
3682 0.00000000
3683 -0.00500000
3684 -0.01500000
3685 -0.00500000
3686 -0.01500000
3687 -0.02500000
3688 -0.03500000
3689 -0.03500000
3690 -0.04500000
3691 -0.05000000
3692 -0.06000000
3693 -0.06000000
3694 -0.07500000
3695 -0.06000000
3696 -0.08000000
3697 -0.07000000
3698 -0.07500000
3699 -0.07500000
3700 -0.09500000
3701 -0.07500000
3702 -0.09000000
3703 -0.08000000
3704 -0.09500000
3705 -0.08000000
3706 -0.09500000
3707 -0.08000000
3708 -0.10000000
3709 -0.09000000
3710 -0.06500000
3711 0.00000000
3712 0.04000000
3713 0.04500000
3714 0.16000000
3715 0.15000000
3716 0.07000000
3717 0.02000000
3718 -0.04000000
3719 -0.06500000
3720 -0.19000000
3721 -0.18500000
3722 -0.20000000
3723 -0.19000000
3724 -0.22000000
3725 -0.15500000
3726 0.29500000
3727 1.22000000
3728 1.71000000
3729 0.06500000
3730 -0.73000000
3731 -0.63000000
3732 -0.39500000
3733 -0.15000000
3734 -0.17000000
3735 -0.15500000
3736 -0.16500000
3737 -0.14000000
3738 -0.14000000
3739 -0.11000000
3740 -0.10500000
3741 -0.07500000
3742 -0.06500000
3743 -0.03000000
3744 -0.02000000
3745 0.01000000
3746 0.03500000
3747 0.07500000
3748 0.10000000
3749 0.14500000
3750 0.17000000
3751 0.20000000
3752 0.21000000
3753 0.22000000
3754 0.22000000
3755 0.23000000
3756 0.22000000
3757 0.20500000
3758 0.16500000
3759 0.13500000
3760 0.09500000
3761 0.05500000
3762 0.02500000
3763 0.01000000
3764 0.00500000
3765 0.00000000
3766 -0.00500000
3767 0.00000000
3768 0.00500000
3769 0.00500000
3770 0.00000000
3771 0.00000000
3772 -0.00500000
3773 -0.01500000
3774 -0.02000000
3775 -0.03000000
3776 -0.03000000
3777 -0.04000000
3778 -0.04500000
3779 -0.05500000
3780 -0.05500000
3781 -0.06000000
3782 -0.06000000
3783 -0.06500000
3784 -0.06500000
3785 -0.07500000
3786 -0.07000000
3787 -0.08000000
3788 -0.07500000
3789 -0.08500000
3790 -0.07500000
3791 -0.08500000
3792 -0.08000000
3793 -0.09000000
3794 -0.09500000
3795 -0.10500000
3796 -0.09500000
3797 -0.10500000
3798 -0.10000000
3799 -0.07000000
3800 -0.00500000
3801 0.03000000
3802 0.02000000
3803 0.11000000
3804 0.15000000
3805 0.10500000
3806 0.02000000
3807 -0.03500000
3808 -0.04000000
3809 -0.16000000
3810 -0.19000000
3811 -0.20000000
3812 -0.18500000
3813 -0.19000000
3814 -0.22500000
3815 0.08500000
3816 0.91500000
3817 1.56000000
3818 0.55000000
3819 -0.50000000
3820 -0.69500000
3821 -0.44000000
3822 -0.18000000
3823 -0.17000000
3824 -0.16000000
3825 -0.15500000
3826 -0.13500000
3827 -0.13500000
3828 -0.12000000
3829 -0.11000000
3830 -0.08500000
3831 -0.06500000
3832 -0.04000000
3833 -0.02000000
3834 0.00500000
3835 0.02500000
3836 0.06000000
3837 0.08500000
3838 0.12000000
3839 0.15500000
3840 0.18000000
3841 0.19500000
3842 0.20500000
3843 0.19500000
3844 0.21000000
3845 0.21000000
3846 0.20000000
3847 0.17500000
3848 0.15500000
3849 0.11000000
3850 0.07500000
3851 0.05000000
3852 0.02500000
3853 0.01000000
3854 0.01000000
3855 0.00000000
3856 0.00000000
3857 0.01000000
3858 0.00500000
3859 0.00000000
3860 0.00000000
3861 -0.01000000
3862 -0.02000000
3863 -0.02000000
3864 -0.02500000
3865 -0.02000000
3866 -0.03500000
3867 -0.04000000
3868 -0.04500000
3869 -0.05500000
3870 -0.06000000
3871 -0.06000000
3872 -0.06500000
3873 -0.06500000
3874 -0.07500000
3875 -0.06500000
3876 -0.08000000
3877 -0.07000000
3878 -0.07500000
3879 -0.06500000
3880 -0.07500000
3881 -0.08500000
3882 -0.08500000
3883 -0.07000000
3884 -0.08500000
3885 -0.08000000
3886 -0.09500000
3887 -0.07000000
3888 -0.09500000
3889 -0.08000000
3890 -0.05500000
3891 0.00000000
3892 0.03000000
3893 0.05000000
3894 0.15000000
3895 0.16500000
3896 0.11500000
3897 0.03500000
3898 -0.03000000
3899 -0.04500000
3900 -0.16500000
3901 -0.16500000
3902 -0.18500000
3903 -0.17500000
3904 -0.20000000
3905 -0.18000000
3906 0.17500000
3907 0.96000000
3908 1.48000000
3909 0.23500000
3910 -0.55000000
3911 -0.67500000
3912 -0.45500000
3913 -0.19000000
3914 -0.17000000
3915 -0.14500000
3916 -0.16500000
3917 -0.12500000
3918 -0.13000000
3919 -0.10000000
3920 -0.10000000
3921 -0.08000000
3922 -0.07500000
3923 -0.04000000
3924 -0.03000000
3925 0.00500000
3926 0.01500000
3927 0.05500000
3928 0.07000000
3929 0.10500000
3930 0.12500000
3931 0.16000000
3932 0.17500000
3933 0.19000000
3934 0.18000000
3935 0.20000000
3936 0.21000000
3937 0.19500000
3938 0.16500000
3939 0.15500000
3940 0.11000000
3941 0.08000000
3942 0.03500000
3943 0.03500000
3944 0.02500000
3945 0.01500000
3946 0.00000000
3947 0.00000000
3948 0.00000000
3949 0.00500000
3950 0.00000000
3951 -0.00500000
3952 -0.01000000
3953 -0.02000000
3954 -0.01500000
3955 -0.03500000
3956 -0.04500000
3957 -0.04500000
3958 -0.04500000
3959 -0.04000000
3960 -0.06000000
3961 -0.07500000
3962 -0.06500000
3963 -0.06000000
3964 -0.06500000
3965 -0.07000000
3966 -0.07000000
3967 -0.08000000
3968 -0.07000000
3969 -0.07000000
3970 -0.07500000
3971 -0.09000000
3972 -0.09000000
3973 -0.07500000
3974 -0.09000000
3975 -0.08000000
3976 -0.10000000
3977 -0.08500000
3978 -0.09000000
3979 -0.07500000
3980 -0.11500000
3981 -0.09000000
3982 -0.07000000
3983 -0.02000000
3984 0.01500000
3985 0.02500000
3986 0.13000000
3987 0.17000000
3988 0.09500000
3989 0.01500000
3990 -0.04000000
3991 -0.05500000
3992 -0.18500000
3993 -0.18500000
3994 -0.20500000
3995 -0.17500000
3996 -0.22000000
3997 -0.16500000
3998 0.24500000
3999 1.00500000
4000 1.45500000
4001 0.17500000
4002 -0.56000000
4003 -0.70500000
4004 -0.50000000
4005 -0.23000000
4006 -0.18500000
4007 -0.15500000
4008 -0.15500000
4009 -0.13500000
4010 -0.14500000
4011 -0.11000000
4012 -0.10500000
4013 -0.07500000
4014 -0.07500000
4015 -0.03500000
4016 -0.03500000
4017 0.00000000
4018 0.01500000
4019 0.05500000
4020 0.07000000
4021 0.10500000
4022 0.12500000
4023 0.15500000
4024 0.16000000
4025 0.18500000
4026 0.19500000
4027 0.21000000
4028 0.19500000
4029 0.17500000
4030 0.16000000
4031 0.13500000
4032 0.10000000
4033 0.06000000
4034 0.03500000
4035 0.01500000
4036 0.01000000
4037 -0.00500000
4038 -0.01000000
4039 -0.00500000
4040 0.00000000
4041 0.00000000
4042 -0.01500000
4043 -0.01500000
4044 -0.02000000
4045 -0.03500000
4046 -0.04500000
4047 -0.05000000
4048 -0.04500000
4049 -0.06000000
4050 -0.07000000
4051 -0.08000000
4052 -0.07000000
4053 -0.07500000
4054 -0.08000000
4055 -0.08500000
4056 -0.08500000
4057 -0.09000000
4058 -0.08500000
4059 -0.08500000
4060 -0.09500000
4061 -0.10000000
4062 -0.09000000
4063 -0.10000000
4064 -0.09500000
4065 -0.10500000
4066 -0.10000000
4067 -0.10000000
4068 -0.10000000
4069 -0.11000000
4070 -0.09500000
4071 -0.05500000
4072 0.01000000
4073 0.02000000
4074 0.05500000
4075 0.17000000
4076 0.12000000
4077 0.04000000
4078 -0.02000000
4079 -0.04000000
4080 -0.13000000
4081 -0.20000000
4082 -0.19500000
4083 -0.20000000
4084 -0.19500000
4085 -0.24500000
4086 0.00000000
4087 0.64500000
4088 1.30000000
4089 0.99000000
4090 -0.20500000
4091 -0.73500000
4092 -0.56000000
4093 -0.30000000
4094 -0.16000000
4095 -0.16000000
4096 -0.14000000
4097 -0.14000000
4098 -0.12500000
4099 -0.11500000
4100 -0.09500000
4101 -0.08500000
4102 -0.06000000
4103 -0.04500000
4104 -0.02000000
4105 0.00000000
4106 0.03000000
4107 0.05000000
4108 0.08500000
4109 0.11500000
4110 0.14500000
4111 0.17500000
4112 0.20000000
4113 0.20500000
4114 0.21000000
4115 0.22000000
4116 0.22000000
4117 0.21000000
4118 0.18500000
4119 0.15000000
4120 0.10500000
4121 0.07000000
4122 0.04000000
4123 0.02000000
4124 0.00500000
4125 0.00000000
4126 0.00000000
4127 -0.00500000
4128 0.00000000
4129 -0.00500000
4130 0.00000000
4131 0.00000000
4132 0.00000000
4133 -0.01000000
4134 -0.01500000
4135 -0.02500000
4136 -0.03000000
4137 -0.03500000
4138 -0.04000000
4139 -0.05000000
4140 -0.05000000
4141 -0.05500000
4142 -0.06000000
4143 -0.07000000
4144 -0.06500000
4145 -0.07500000
4146 -0.06500000
4147 -0.07000000
4148 -0.06500000
4149 -0.08000000
4150 -0.07000000
4151 -0.08000000
4152 -0.07500000
4153 -0.08500000
4154 -0.07500000
4155 -0.08500000
4156 -0.08000000
4157 -0.08500000
4158 -0.07500000
4159 -0.09500000
4160 -0.08000000
4161 -0.09500000
4162 -0.08000000
4163 -0.09500000
4164 -0.08500000
4165 -0.10500000
4166 -0.08500000
4167 -0.07000000
4168 -0.01000000
4169 0.02500000
4170 0.03000000
4171 0.11000000
4172 0.15000000
4173 0.09500000
4174 0.02000000
4175 -0.03500000
4176 -0.03000000
4177 -0.16500000
4178 -0.18000000
4179 -0.19000000
4180 -0.16500000
4181 -0.20000000
4182 -0.19000000
4183 0.18000000
4184 1.08500000
4185 1.64000000
4186 0.19000000
4187 -0.64000000
4188 -0.62500000
4189 -0.39000000
4190 -0.15000000
4191 -0.16000000
4192 -0.14000000
4193 -0.15000000
4194 -0.13000000
4195 -0.13500000
4196 -0.10500000
4197 -0.11500000
4198 -0.07500000
4199 -0.07000000
4200 -0.03000000
4201 -0.01500000
4202 0.01500000
4203 0.03000000
4204 0.06000000
4205 0.08500000
4206 0.12500000
4207 0.15000000
4208 0.18500000
4209 0.19500000
4210 0.21000000
4211 0.20500000
4212 0.21000000
4213 0.20500000
4214 0.20000000
4215 0.17000000
4216 0.14500000
4217 0.11000000
4218 0.08000000
4219 0.05000000
4220 0.02500000
4221 0.01500000
4222 0.01000000
4223 0.01000000
4224 0.01500000
4225 0.01000000
4226 0.01500000
4227 0.01500000
4228 0.01500000
4229 0.00500000
4230 0.00000000
4231 0.00000000
4232 -0.00500000
4233 -0.01500000
4234 -0.02000000
4235 -0.03000000
4236 -0.02500000
4237 -0.03500000
4238 -0.03500000
4239 -0.04000000
4240 -0.04000000
4241 -0.04500000
4242 -0.04500000
4243 -0.05500000
4244 -0.05500000
4245 -0.06000000
4246 -0.05500000
4247 -0.06000000
4248 -0.05500000
4249 -0.06500000
4250 -0.06500000
4251 -0.06500000
4252 -0.06500000
4253 -0.07000000
4254 -0.06000000
4255 -0.07500000
4256 -0.06500000
4257 -0.07500000
4258 -0.06500000
4259 -0.07500000
4260 -0.07000000
4261 -0.08000000
4262 -0.06500000
4263 -0.08000000
4264 -0.07000000
4265 -0.08000000
4266 -0.08000000
4267 -0.06500000
4268 -0.01000000
4269 0.03500000
4270 0.04000000
4271 0.10500000
4272 0.18000000
4273 0.12000000
4274 0.03000000
4275 -0.02500000
4276 -0.02000000
4277 -0.14500000
4278 -0.18000000
4279 -0.19000000
4280 -0.18500000
4281 -0.19000000
4282 -0.20500000
4283 0.12000000
4284 0.90000000
4285 1.44000000
4286 0.32000000
4287 -0.53000000
4288 -0.67500000
4289 -0.45500000
4290 -0.19000000
4291 -0.17000000
4292 -0.15500000
4293 -0.15500000
4294 -0.13500000
4295 -0.14500000
4296 -0.12000000
4297 -0.11000000
4298 -0.07500000
4299 -0.06500000
4300 -0.03500000
4301 -0.03000000
4302 0.01000000
4303 0.02500000
4304 0.06000000
4305 0.07500000
4306 0.11000000
4307 0.14500000
4308 0.17000000
4309 0.18500000
4310 0.19500000
4311 0.20000000
4312 0.21500000
4313 0.20000000
4314 0.20500000
4315 0.19000000
4316 0.16000000
4317 0.11000000
4318 0.08000000
4319 0.05500000
4320 0.03000000
4321 0.01500000
4322 0.01000000
4323 -0.01000000
4324 0.01000000
4325 0.01000000
4326 0.00000000
4327 -0.00500000
4328 0.00000000
4329 0.00000000
4330 0.00000000
4331 -0.02000000
4332 -0.03000000
4333 -0.03000000
4334 -0.03500000
4335 -0.05000000
4336 -0.04000000
4337 -0.04500000
4338 -0.06000000
4339 -0.06000000
4340 -0.05000000
4341 -0.05500000
4342 -0.05000000
4343 -0.06500000
4344 -0.05500000
4345 -0.06000000
4346 -0.06000000
4347 -0.05500000
4348 -0.07000000
4349 -0.07500000
4350 -0.06500000
4351 -0.07500000
4352 -0.07500000
4353 -0.08500000
4354 -0.07000000
4355 -0.07000000
4356 -0.07000000
4357 -0.10000000
4358 -0.05500000
4359 -0.09000000
4360 -0.07500000
4361 -0.06500000
4362 -0.02500000
4363 0.02500000
4364 0.05000000
4365 0.12000000
4366 0.21000000
4367 0.12500000
4368 0.04500000
4369 -0.03000000
4370 -0.02500000
4371 -0.16000000
4372 -0.17000000
4373 -0.19500000
4374 -0.16000000
4375 -0.20000000
4376 -0.17000000
4377 0.21500000
4378 0.91500000
4379 1.39500000
4380 0.32000000
4381 -0.40500000
4382 -0.70000000
4383 -0.54500000
4384 -0.24500000
4385 -0.16000000
4386 -0.12500000
4387 -0.15000000
4388 -0.11000000
4389 -0.14000000
4390 -0.09500000
4391 -0.08500000
4392 -0.05500000
4393 -0.06000000
4394 -0.01500000
4395 -0.01000000
4396 0.03000000
4397 0.04000000
4398 0.04500000
4399 0.09500000
4400 0.13000000
4401 0.12500000
4402 0.18500000
4403 0.19000000
4404 0.20500000
4405 0.20000000
4406 0.21000000
4407 0.22000000
4408 0.21500000
4409 0.19000000
4410 0.15000000
4411 0.12000000
4412 0.08000000
4413 0.05500000
4414 0.04000000
4415 0.02000000
4416 0.00000000
4417 -0.01000000
4418 0.00000000
4419 0.00500000
4420 -0.01000000
4421 -0.01000000
4422 -0.00500000
4423 -0.00500000
4424 -0.02000000
4425 -0.02500000
4426 -0.01000000
4427 -0.04500000
4428 -0.04000000
4429 -0.04000000
4430 -0.05500000
4431 -0.07000000
4432 -0.06500000
4433 -0.07500000
4434 -0.07500000
4435 -0.07000000
4436 -0.07000000
4437 -0.07500000
4438 -0.08500000
4439 -0.07500000
4440 -0.06500000
4441 -0.08500000
4442 -0.10000000
4443 -0.08000000
4444 -0.09000000
4445 -0.08500000
4446 -0.09500000
4447 -0.10000000
4448 -0.03500000
4449 0.01000000
4450 0.03000000
4451 0.07500000
4452 0.21500000
4453 0.14000000
4454 0.06000000
4455 0.00000000
4456 -0.03500000
4457 -0.11000000
4458 -0.18000000
4459 -0.21500000
4460 -0.18000000
4461 -0.19000000
4462 -0.24000000
4463 0.04000000
4464 0.71500000
4465 1.28500000
4466 0.81000000
4467 -0.20000000
4468 -0.75500000
4469 -0.67500000
4470 -0.36000000
4471 -0.18000000
4472 -0.16000000
4473 -0.16000000
4474 -0.14500000
4475 -0.13500000
4476 -0.11500000
4477 -0.12000000
4478 -0.10000000
4479 -0.07000000
4480 -0.05500000
4481 -0.05000000
4482 0.00000000
4483 0.02000000
4484 0.05000000
4485 0.09000000
4486 0.10500000
4487 0.15500000
4488 0.15500000
4489 0.19500000
4490 0.22500000
4491 0.22000000
4492 0.24000000
4493 0.21500000
4494 0.22500000
4495 0.17500000
4496 0.14500000
4497 0.10500000
4498 0.06500000
4499 0.03000000
4500 -0.01500000
4501 -0.01000000
4502 -0.01500000
4503 -0.03500000
4504 -0.00500000
4505 -0.01000000
4506 -0.02500000
4507 -0.04500000
4508 -0.02000000
4509 -0.03500000
4510 -0.05000000
4511 -0.04000000
4512 -0.05500000
4513 -0.06000000
4514 -0.07500000
4515 -0.07000000
4516 -0.08500000
4517 -0.08000000
4518 -0.09000000
4519 -0.09500000
4520 -0.09000000
4521 -0.10000000
4522 -0.08500000
4523 -0.09500000
4524 -0.09000000
4525 -0.10500000
4526 -0.10500000
4527 -0.11000000
4528 -0.12000000
4529 -0.09500000
4530 -0.05500000
4531 0.00500000
4532 0.02000000
4533 0.05500000
4534 0.17000000
4535 0.14500000
4536 0.04500000
4537 -0.02500000
4538 -0.04000000
4539 -0.12500000
4540 -0.19500000
4541 -0.20000000
4542 -0.21000000
4543 -0.20000000
4544 -0.25000000
4545 0.02500000
4546 0.72000000
4547 1.36500000
4548 0.96500000
4549 -0.24000000
4550 -0.76500000
4551 -0.62500000
4552 -0.34000000
4553 -0.16500000
4554 -0.16000000
4555 -0.15500000
4556 -0.14500000
4557 -0.12500000
4558 -0.13000000
4559 -0.12000000
4560 -0.08500000
4561 -0.07500000
4562 -0.05500000
4563 -0.02000000
4564 0.00000000
4565 0.02500000
4566 0.05500000
4567 0.08500000
4568 0.13500000
4569 0.16500000
4570 0.20000000
4571 0.21000000
4572 0.24500000
4573 0.25000000
4574 0.25000000
4575 0.26500000
4576 0.24000000
4577 0.18500000
4578 0.14500000
4579 0.09000000
4580 0.03500000
4581 0.00500000
4582 -0.01000000
4583 -0.02000000
4584 -0.02500000
4585 -0.04000000
4586 -0.04500000
4587 -0.04000000
4588 -0.03500000
4589 -0.03000000
4590 -0.02500000
4591 -0.04500000
4592 -0.04500000
4593 -0.05500000
4594 -0.05500000
4595 -0.07000000
4596 -0.07000000
4597 -0.08000000
4598 -0.07000000
4599 -0.09000000
4600 -0.10000000
4601 -0.10000000
4602 -0.09500000
4603 -0.11000000
4604 -0.10000000
4605 -0.10500000
4606 -0.09500000
4607 -0.11000000
4608 -0.11500000
4609 -0.12000000
4610 -0.10500000
4611 -0.12000000
4612 -0.09000000
4613 -0.06000000
4614 0.00000000
4615 0.01000000
4616 0.04000000
4617 0.16000000
4618 0.11000000
4619 0.02000000
4620 -0.00500000
4621 -0.05000000
4622 -0.10000000
4623 -0.20500000
4624 -0.20500000
4625 -0.21500000
4626 -0.19500000
4627 -0.24500000
4628 -0.09000000
4629 0.47000000
4630 1.33000000
4631 1.51500000
4632 -0.12500000
4633 -0.81000000
4634 -0.57500000
4635 -0.32500000
4636 -0.15000000
4637 -0.17000000
4638 -0.14500000
4639 -0.15000000
4640 -0.13000000
4641 -0.13500000
4642 -0.11500000
4643 -0.10500000
4644 -0.07500000
4645 -0.05500000
4646 -0.02500000
4647 -0.01500000
4648 0.02000000
4649 0.04000000
4650 0.07500000
4651 0.10500000
4652 0.15500000
4653 0.18000000
4654 0.21500000
4655 0.23500000
4656 0.25000000
4657 0.25000000
4658 0.25500000
4659 0.22000000
4660 0.20500000
4661 0.16000000
4662 0.11000000
4663 0.07500000
4664 0.02000000
4665 -0.01000000
4666 -0.02000000
4667 -0.02500000
4668 -0.02500000
4669 -0.03000000
4670 -0.03000000
4671 -0.02000000
4672 -0.02500000
4673 -0.01500000
4674 -0.00500000
4675 -0.02000000
4676 -0.03000000
4677 -0.03500000
4678 -0.02000000
4679 -0.03500000
4680 -0.04000000
4681 -0.07000000
4682 -0.06500000
4683 -0.05000000
4684 -0.06000000
4685 -0.06000000
4686 -0.06000000
4687 -0.04500000
4688 -0.07500000
4689 -0.07000000
4690 -0.07000000
4691 -0.08000000
4692 -0.08500000
4693 -0.06000000
4694 -0.09000000
4695 -0.08500000
4696 -0.09000000
4697 -0.07000000
4698 -0.10000000
4699 -0.08500000
4700 -0.07500000
4701 -0.01500000
4702 0.04000000
4703 0.02000000
4704 0.10500000
4705 0.18500000
4706 0.11500000
4707 0.01500000
4708 -0.04000000
4709 -0.03500000
4710 -0.16000000
4711 -0.18500000
4712 -0.19000000
4713 -0.18500000
4714 -0.19500000
4715 -0.22000000
4716 0.13000000
4717 0.94000000
4718 1.52500000
4719 0.47500000
4720 -0.46500000
4721 -0.73000000
4722 -0.53000000
4723 -0.24000000
4724 -0.16000000
4725 -0.16500000
4726 -0.14000000
4727 -0.14000000
4728 -0.14000000
4729 -0.10000000
4730 -0.11000000
4731 -0.08000000
4732 -0.06500000
4733 -0.02000000
4734 -0.02000000
4735 0.00500000
4736 0.03000000
4737 0.06000000
4738 0.08000000
4739 0.12500000
4740 0.16000000
4741 0.20500000
4742 0.22000000
4743 0.22500000
4744 0.23000000
4745 0.26000000
4746 0.25000000
4747 0.24500000
4748 0.20000000
4749 0.16500000
4750 0.11500000
4751 0.08500000
4752 0.04500000
4753 0.01000000
4754 0.01500000
4755 -0.00500000
4756 0.00000000
4757 -0.01500000
4758 -0.01500000
4759 0.01000000
4760 -0.01500000
4761 -0.00500000
4762 0.00000000
4763 -0.02500000
4764 -0.01000000
4765 -0.04000000
4766 -0.03500000
4767 -0.04500000
4768 -0.05000000
4769 -0.05000000
4770 -0.05500000
4771 -0.07500000
4772 -0.06000000
4773 -0.07000000
4774 -0.07000000
4775 -0.08000000
4776 -0.09500000
4777 -0.08000000
4778 -0.07000000
4779 -0.08500000
4780 -0.11000000
4781 -0.08500000
4782 -0.09500000
4783 -0.10000000
4784 -0.09000000
4785 -0.09500000
4786 -0.11500000
4787 -0.10000000
4788 -0.08500000
4789 -0.05000000
4790 0.02000000
4791 0.03000000
4792 0.06500000
4793 0.19000000
4794 0.13000000
4795 0.05500000
4796 -0.01000000
4797 -0.02000000
4798 -0.13000000
4799 -0.18500000
4800 -0.20000000
4801 -0.19000000
4802 -0.18000000
4803 -0.23000000
4804 0.05500000
4805 0.75000000
4806 1.37500000
4807 0.88000000
4808 -0.24500000
4809 -0.76500000
4810 -0.61000000
4811 -0.33500000
4812 -0.18000000
4813 -0.15500000
4814 -0.15000000
4815 -0.14500000
4816 -0.13000000
4817 -0.11000000
4818 -0.10500000
4819 -0.08500000
4820 -0.07000000
4821 -0.05000000
4822 -0.03000000
4823 0.00000000
4824 0.02000000
4825 0.05000000
4826 0.07500000
4827 0.12500000
4828 0.15000000
4829 0.17500000
4830 0.20500000
4831 0.21500000
4832 0.23000000
4833 0.25000000
4834 0.22500000
4835 0.21500000
4836 0.21000000
4837 0.14500000
4838 0.10500000
4839 0.05000000
4840 0.03000000
4841 0.02000000
4842 0.00000000
4843 -0.01000000
4844 0.00000000
4845 -0.00500000
4846 -0.02000000
4847 -0.01000000
4848 -0.00500000
4849 -0.00500000
4850 -0.02000000
4851 -0.01000000
4852 0.00000000
4853 -0.02000000
4854 -0.02500000
4855 -0.04000000
4856 -0.05000000
4857 -0.04500000
4858 -0.04500000
4859 -0.05500000
4860 -0.06000000
4861 -0.06500000
4862 -0.07000000
4863 -0.06500000
4864 -0.08000000
4865 -0.06500000
4866 -0.08500000
4867 -0.08000000
4868 -0.09000000
4869 -0.07500000
4870 -0.10500000
4871 -0.09000000
4872 -0.09500000
4873 -0.09500000
4874 -0.10500000
4875 -0.08500000
4876 -0.07500000
4877 -0.00500000
4878 0.03000000
4879 0.02500000
4880 0.12000000
4881 0.15500000
4882 0.10000000
4883 0.02500000
4884 -0.04000000
4885 -0.05000000
4886 -0.16000000
4887 -0.18500000
4888 -0.20000000
4889 -0.17000000
4890 -0.21500000
4891 -0.23000000
4892 0.16000000
4893 1.05000000
4894 1.66500000
4895 0.34500000
4896 -0.56000000
4897 -0.68000000
4898 -0.45500000
4899 -0.19000000
4900 -0.17500000
4901 -0.14000000
4902 -0.15000000
4903 -0.12000000
4904 -0.13500000
4905 -0.10500000
4906 -0.10500000
4907 -0.07000000
4908 -0.05500000
4909 -0.02000000
4910 -0.02000000
4911 0.00500000
4912 0.03000000
4913 0.07000000
4914 0.10000000
4915 0.14500000
4916 0.18000000
4917 0.21500000
4918 0.24000000
4919 0.26000000
4920 0.25500000
4921 0.27000000
4922 0.25500000
4923 0.23500000
4924 0.20000000
4925 0.15500000
4926 0.10500000
4927 0.06500000
4928 0.03000000
4929 0.01000000
4930 -0.00500000
4931 -0.01500000
4932 -0.02000000
4933 -0.00500000
4934 -0.01000000
4935 0.00000000
4936 0.00000000
4937 -0.00500000
4938 -0.00500000
4939 0.00000000
4940 -0.01500000
4941 -0.02500000
4942 -0.01500000
4943 -0.02500000
4944 -0.04000000
4945 -0.04000000
4946 -0.05500000
4947 -0.06000000
4948 -0.06000000
4949 -0.06500000
4950 -0.06500000
4951 -0.07500000
4952 -0.07500000
4953 -0.08000000
4954 -0.07000000
4955 -0.06500000
4956 -0.06500000
4957 -0.06000000
4958 -0.08000000
4959 -0.08000000
4960 -0.09000000
4961 -0.08000000
4962 -0.08000000
4963 -0.07000000
4964 -0.09000000
4965 -0.08000000
4966 -0.10500000
4967 -0.08500000
4968 -0.06500000
4969 -0.01500000
4970 0.03500000
4971 0.05000000
4972 0.11500000
4973 0.18500000
4974 0.10500000
4975 0.03000000
4976 -0.03500000
4977 -0.02500000
4978 -0.14000000
4979 -0.19000000
4980 -0.20000000
4981 -0.16500000
4982 -0.19000000
4983 -0.22000000
4984 0.14000000
4985 0.99000000
4986 1.60000000
4987 0.44000000
4988 -0.50000000
4989 -0.68000000
4990 -0.45000000
4991 -0.19000000
4992 -0.16500000
4993 -0.14500000
4994 -0.15000000
4995 -0.12000000
4996 -0.14500000
4997 -0.10000000
4998 -0.09500000
4999 -0.09000000
5000 -0.07000000
5001 -0.04000000
5002 -0.02500000
5003 0.02000000
5004 0.01000000
5005 0.05500000
5006 0.08000000
5007 0.13500000
5008 0.16500000
5009 0.19500000
5010 0.21500000
5011 0.24000000
5012 0.26000000
5013 0.26000000
5014 0.25500000
5015 0.23500000
5016 0.20500000
5017 0.16500000
5018 0.10500000
5019 0.07000000
5020 0.03500000
5021 0.00500000
5022 -0.01500000
5023 -0.02000000
5024 0.00000000
5025 -0.02000000
5026 -0.01500000
5027 -0.02000000
5028 -0.01000000
5029 0.00000000
5030 -0.03500000
5031 -0.02000000
5032 -0.01000000
5033 -0.02000000
5034 -0.04000000
5035 -0.03500000
5036 -0.04000000
5037 -0.07500000
5038 -0.05500000
5039 -0.05500000
5040 -0.07500000
5041 -0.05500000
5042 -0.07000000
5043 -0.08000000
5044 -0.08000000
5045 -0.09000000
5046 -0.09500000
5047 -0.07500000
5048 -0.08500000
5049 -0.09500000
5050 -0.08500000
5051 -0.08500000
5052 -0.08500000
5053 -0.09000000
5054 -0.08500000
5055 -0.08500000
5056 -0.09000000
5057 -0.09500000
5058 -0.07000000
5059 -0.04000000
5060 0.01000000
5061 0.01000000
5062 0.06500000
5063 0.19000000
5064 0.13500000
5065 0.07000000
5066 -0.01000000
5067 -0.03000000
5068 -0.12000000
5069 -0.18000000
5070 -0.20000000
5071 -0.19000000
5072 -0.18500000
5073 -0.23500000
5074 0.03000000
5075 0.68000000
5076 1.32500000
5077 0.94000000
5078 -0.21500000
5079 -0.75500000
5080 -0.61000000
5081 -0.33000000
5082 -0.16500000
5083 -0.15500000
5084 -0.16000000
5085 -0.14000000
5086 -0.12500000
5087 -0.10500000
5088 -0.10500000
5089 -0.09000000
5090 -0.07000000
5091 -0.06000000
5092 -0.03000000
5093 0.00500000
5094 0.03500000
5095 0.06000000
5096 0.07500000
5097 0.12000000
5098 0.15000000
5099 0.19500000
5100 0.21000000
5101 0.23000000
5102 0.24500000
5103 0.25000000
5104 0.24500000
5105 0.24500000
5106 0.20000000
5107 0.15000000
5108 0.11000000
5109 0.07000000
5110 0.03000000
5111 0.00500000
5112 -0.01500000
5113 -0.02500000
5114 -0.02500000
5115 -0.01000000
5116 -0.02500000
5117 -0.02500000
5118 -0.02000000
5119 -0.02000000
5120 -0.01500000
5121 -0.02500000
5122 -0.02500000
5123 -0.05000000
5124 -0.04000000
5125 -0.05000000
5126 -0.06500000
5127 -0.05500000
5128 -0.07500000
5129 -0.07000000
5130 -0.07500000
5131 -0.08500000
5132 -0.08500000
5133 -0.08500000
5134 -0.08500000
5135 -0.08000000
5136 -0.10500000
5137 -0.08500000
5138 -0.11000000
5139 -0.09000000
5140 -0.11000000
5141 -0.10500000
5142 -0.10000000
5143 -0.09000000
5144 -0.10000000
5145 -0.09000000
5146 -0.10500000
5147 -0.09000000
5148 -0.06000000
5149 0.00500000
5150 0.02000000
5151 0.05000000
5152 0.17000000
5153 0.14500000
5154 0.06000000
5155 0.01000000
5156 -0.04500000
5157 -0.09500000
5158 -0.20000000
5159 -0.18000000
5160 -0.21500000
5161 -0.18000000
5162 -0.23500000
5163 -0.07500000
5164 0.48000000
5165 1.26000000
5166 1.43500000
5167 -0.05000000
5168 -0.77500000
5169 -0.65000000
5170 -0.38000000
5171 -0.16500000
5172 -0.17500000
5173 -0.13500000
5174 -0.15500000
5175 -0.13500000
5176 -0.13500000
5177 -0.11500000
5178 -0.10500000
5179 -0.07500000
5180 -0.05500000
5181 -0.03000000
5182 -0.01000000
5183 0.01500000
5184 0.04500000
5185 0.07500000
5186 0.10000000
5187 0.15500000
5188 0.18500000
5189 0.22500000
5190 0.25000000
5191 0.25500000
5192 0.25500000
5193 0.27000000
5194 0.24000000
5195 0.21500000
5196 0.17000000
5197 0.12000000
5198 0.07500000
5199 0.04500000
5200 0.01000000
5201 -0.00500000
5202 -0.01000000
5203 -0.01000000
5204 -0.02500000
5205 -0.02000000
5206 -0.02000000
5207 -0.01500000
5208 -0.00500000
5209 -0.01500000
5210 -0.01000000
5211 -0.02500000
5212 -0.01500000
5213 -0.01500000
5214 -0.04000000
5215 -0.05500000
5216 -0.06000000
5217 -0.05500000
5218 -0.06000000
5219 -0.07500000
5220 -0.08000000
5221 -0.08000000
5222 -0.06500000
5223 -0.06500000
5224 -0.08000000
5225 -0.07500000
5226 -0.09000000
5227 -0.08500000
5228 -0.07500000
5229 -0.07000000
5230 -0.08500000
5231 -0.07500000
5232 -0.09500000
5233 -0.09500000
5234 -0.08500000
5235 -0.08500000
5236 -0.10500000
5237 -0.09000000
5238 -0.10500000
5239 -0.09500000
5240 -0.09500000
5241 -0.02000000
5242 0.02500000
5243 0.01000000
5244 0.06500000
5245 0.16000000
5246 0.11000000
5247 0.02500000
5248 -0.02500000
5249 -0.03000000
5250 -0.15500000
5251 -0.19000000
5252 -0.19500000
5253 -0.20000000
5254 -0.19500000
5255 -0.25000000
5256 0.07000000
5257 0.88000000
5258 1.50000000
5259 0.70000000
5260 -0.38000000
5261 -0.75000000
5262 -0.53000000
5263 -0.27000000
5264 -0.16500000
5265 -0.15500000
5266 -0.15000000
5267 -0.13500000
5268 -0.11500000
5269 -0.11000000
5270 -0.10000000
5271 -0.08500000
5272 -0.08000000
5273 -0.05000000
5274 -0.02500000
5275 0.01500000
5276 0.01500000
5277 0.04500000
5278 0.08000000
5279 0.13500000
5280 0.16000000
5281 0.20000000
5282 0.20500000
5283 0.24000000
5284 0.25500000
5285 0.26000000
5286 0.24000000
5287 0.23000000
5288 0.19500000
5289 0.16500000
5290 0.12000000
5291 0.07000000
5292 0.03000000
5293 0.01500000
5294 0.00000000
5295 -0.01000000
5296 -0.00500000
5297 -0.02500000
5298 -0.01000000
5299 -0.00500000
5300 0.01000000
5301 -0.01000000
5302 -0.01500000
5303 0.00500000
5304 -0.01000000
5305 -0.02500000
5306 -0.04000000
5307 -0.03000000
5308 -0.04500000
5309 -0.05500000
5310 -0.05500000
5311 -0.06000000
5312 -0.06500000
5313 -0.05000000
5314 -0.07500000
5315 -0.08000000
5316 -0.09500000
5317 -0.08000000
5318 -0.08500000
5319 -0.07500000
5320 -0.09500000
5321 -0.08000000
5322 -0.09500000
5323 -0.10500000
5324 -0.10500000
5325 -0.09500000
5326 -0.11000000
5327 -0.09000000
5328 -0.12500000
5329 -0.08500000
5330 -0.08500000
5331 -0.02500000
5332 0.02500000
5333 0.03000000
5334 0.11500000
5335 0.16500000
5336 0.08500000
5337 0.02000000
5338 -0.03500000
5339 -0.05500000
5340 -0.18500000
5341 -0.17000000
5342 -0.22000000
5343 -0.19000000
5344 -0.22000000
5345 -0.15000000
5346 0.28000000
5347 1.13500000
5348 1.64500000
5349 0.15000000
5350 -0.67000000
5351 -0.73000000
5352 -0.47500000
5353 -0.20500000
5354 -0.18000000
5355 -0.15000000
5356 -0.16500000
5357 -0.13000000
5358 -0.11500000
5359 -0.09000000
5360 -0.10000000
5361 -0.06000000
5362 -0.06000000
5363 -0.01500000
5364 -0.01500000
5365 0.03500000
5366 0.05000000
5367 0.09000000
5368 0.11500000
5369 0.15500000
5370 0.20500000
5371 0.23500000
5372 0.24500000
5373 0.27500000
5374 0.27500000
5375 0.27500000
5376 0.26000000
5377 0.25500000
5378 0.20000000
5379 0.17000000
5380 0.11000000
5381 0.07500000
5382 0.03000000
5383 0.02000000
5384 0.00000000
5385 -0.00500000
5386 0.00000000
5387 -0.01000000
5388 0.00000000
5389 0.00000000
5390 -0.00500000
5391 0.00000000
5392 -0.00500000
5393 0.00000000
5394 -0.02000000
5395 -0.04000000
5396 -0.02500000
5397 -0.03000000
5398 -0.05500000
5399 -0.05000000
5400 -0.05000000
5401 -0.05500000
5402 -0.06000000
5403 -0.05500000
5404 -0.08500000
5405 -0.07500000
5406 -0.08000000
5407 -0.06500000
5408 -0.09000000
5409 -0.09500000
5410 -0.09500000
5411 -0.08500000
5412 -0.10000000
5413 -0.08500000
5414 -0.10000000
5415 -0.08500000
5416 -0.11500000
5417 -0.10000000
5418 -0.11500000
5419 -0.10000000
5420 -0.08500000
5421 -0.00500000
5422 0.02000000
5423 0.02500000
5424 0.13000000
5425 0.15000000
5426 0.08000000
5427 0.02500000
5428 -0.04000000
5429 -0.06500000
5430 -0.19000000
5431 -0.19000000
5432 -0.21500000
5433 -0.18500000
5434 -0.23500000
5435 -0.17000000
5436 0.27500000
5437 1.18500000
5438 1.74500000
5439 0.16500000
5440 -0.70000000
5441 -0.67500000
5442 -0.44500000
5443 -0.18000000
5444 -0.17000000
5445 -0.16500000
5446 -0.17000000
5447 -0.13500000
5448 -0.14000000
5449 -0.10500000
5450 -0.09500000
5451 -0.08000000
5452 -0.08000000
5453 -0.03500000
5454 -0.02500000
5455 0.02500000
5456 0.02500000
5457 0.06500000
5458 0.11500000
5459 0.15500000
5460 0.17000000
5461 0.23500000
5462 0.24500000
5463 0.27000000
5464 0.27000000
5465 0.28000000
5466 0.27500000
5467 0.24500000
5468 0.20000000
5469 0.16000000
5470 0.10500000
5471 0.06500000
5472 0.04500000
5473 0.00000000
5474 -0.00500000
5475 -0.01500000
5476 -0.01500000
5477 0.00000000
5478 -0.01500000
5479 -0.01500000
5480 -0.01500000
5481 -0.02000000
5482 -0.01500000
5483 -0.01000000
5484 -0.01500000
5485 -0.03000000
5486 -0.02500000
5487 -0.03000000
5488 -0.04500000
5489 -0.05500000
5490 -0.05500000
5491 -0.06500000
5492 -0.07000000
5493 -0.07000000
5494 -0.07500000
5495 -0.07500000
5496 -0.06500000
5497 -0.08500000
5498 -0.07000000
5499 -0.08500000
5500 -0.08000000
5501 -0.10500000
5502 -0.10000000
5503 -0.09500000
5504 -0.07500000
5505 -0.10000000
5506 -0.09500000
5507 -0.09500000
5508 -0.08500000
5509 -0.10500000
5510 -0.09500000
5511 -0.06500000
5512 -0.01500000
5513 0.02000000
5514 0.02500000
5515 0.13500000
5516 0.14500000
5517 0.08500000
5518 0.02500000
5519 -0.04000000
5520 -0.06000000
5521 -0.19000000
5522 -0.19000000
5523 -0.21000000
5524 -0.16500000
5525 -0.21500000
5526 -0.16500000
5527 0.26500000
5528 1.17000000
5529 1.73000000
5530 0.15500000
5531 -0.69500000
5532 -0.67000000
5533 -0.42500000
5534 -0.17500000
5535 -0.17500000
5536 -0.15500000
5537 -0.14000000
5538 -0.12500000
5539 -0.13500000
5540 -0.10000000
5541 -0.10500000
5542 -0.07500000
5543 -0.06000000
5544 -0.01500000
5545 -0.01500000
5546 0.01500000
5547 0.05500000
5548 0.07000000
5549 0.10000000
5550 0.17000000
5551 0.20500000
5552 0.23500000
5553 0.24500000
5554 0.28000000
5555 0.28000000
5556 0.29500000
5557 0.27000000
5558 0.25500000
5559 0.21000000
5560 0.14000000
5561 0.09000000
5562 0.06500000
5563 0.03000000
5564 0.00000000
5565 -0.01000000
5566 -0.01000000
5567 0.00000000
5568 -0.01500000
5569 -0.00500000
5570 -0.02500000
5571 -0.02000000
5572 0.00000000
5573 -0.01000000
5574 0.00000000
5575 -0.02500000
5576 -0.05000000
5577 -0.03500000
5578 -0.03500000
5579 -0.04500000
5580 -0.05500000
5581 -0.06000000
5582 -0.07000000
5583 -0.06000000
5584 -0.07500000
5585 -0.06500000
5586 -0.07500000
5587 -0.08000000
5588 -0.07500000
5589 -0.07000000
5590 -0.08000000
5591 -0.08000000
5592 -0.08500000
5593 -0.08500000
5594 -0.10000000
5595 -0.07500000
5596 -0.09000000
5597 -0.08000000
5598 -0.11000000
5599 -0.08000000
5600 -0.08500000
5601 -0.10000000
5602 -0.08500000
5603 -0.02000000
5604 0.03500000
5605 0.06000000
5606 0.09500000
5607 0.18000000
5608 0.11000000
5609 0.05000000
5610 -0.01000000
5611 -0.05000000
5612 -0.17000000
5613 -0.16000000
5614 -0.19000000
5615 -0.18000000
5616 -0.20000000
5617 -0.22500000
5618 0.17000000
5619 1.01500000
5620 1.61000000
5621 0.39500000
5622 -0.50500000
5623 -0.73500000
5624 -0.52000000
5625 -0.24500000
5626 -0.18000000
5627 -0.15500000
5628 -0.17000000
5629 -0.12500000
5630 -0.14500000
5631 -0.10500000
5632 -0.10500000
5633 -0.08000000
5634 -0.07500000
5635 -0.04500000
5636 -0.03500000
5637 0.00000000
5638 0.02000000
5639 0.06000000
5640 0.07000000
5641 0.13000000
5642 0.16000000
5643 0.20500000
5644 0.24000000
5645 0.25500000
5646 0.23500000
5647 0.25000000
5648 0.25500000
5649 0.24500000
5650 0.21500000
5651 0.15500000
5652 0.11500000
5653 0.06000000
5654 0.03500000
5655 0.01000000
5656 -0.02000000
5657 0.00000000
5658 -0.02500000
5659 -0.01000000
5660 -0.00500000
5661 -0.01500000
5662 0.00000000
5663 -0.00500000
5664 0.00000000
5665 -0.02000000
5666 -0.03000000
5667 -0.03000000
5668 -0.03500000
5669 -0.04500000
5670 -0.06000000
5671 -0.06000000
5672 -0.06000000
5673 -0.06000000
5674 -0.08000000
5675 -0.07000000
5676 -0.08000000
5677 -0.08500000
5678 -0.06500000
5679 -0.10000000
5680 -0.11500000
5681 -0.09000000
5682 -0.09500000
5683 -0.09500000
5684 -0.09000000
5685 -0.10500000
5686 -0.09000000
5687 -0.09500000
5688 -0.10000000
5689 -0.11000000
5690 -0.09000000
5691 -0.03000000
5692 0.00000000
5693 0.03500000
5694 0.05000000
5695 0.18500000
5696 0.15000000
5697 0.04500000
5698 -0.02000000
5699 -0.02500000
5700 -0.11500000
5701 -0.19500000
5702 -0.19000000
5703 -0.19500000
5704 -0.19000000
5705 -0.25500000
5706 0.04500000
5707 0.79500000
5708 1.46000000
5709 0.92000000
5710 -0.26000000
5711 -0.77500000
5712 -0.60500000
5713 -0.31000000
5714 -0.17000000
5715 -0.16000000
5716 -0.15500000
5717 -0.14000000
5718 -0.13500000
5719 -0.11000000
5720 -0.12000000
5721 -0.08000000
5722 -0.07500000
5723 -0.04500000
5724 -0.02500000
5725 0.00000000
5726 0.02500000
5727 0.06000000
5728 0.09000000
5729 0.12500000
5730 0.16500000
5731 0.21000000
5732 0.23000000
5733 0.24500000
5734 0.27500000
5735 0.27000000
5736 0.25500000
5737 0.23500000
5738 0.21000000
5739 0.14500000
5740 0.11000000
5741 0.06500000
5742 0.02000000
5743 0.00000000
5744 -0.00500000
5745 -0.03000000
5746 -0.04500000
5747 -0.03500000
5748 -0.02500000
5749 -0.01500000
5750 -0.03000000
5751 -0.02000000
5752 -0.02500000
5753 -0.02500000
5754 -0.03000000
5755 -0.04000000
5756 -0.04500000
5757 -0.05000000
5758 -0.05500000
5759 -0.06000000
5760 -0.06000000
5761 -0.06000000
5762 -0.09000000
5763 -0.09500000
5764 -0.07500000
5765 -0.09000000
5766 -0.09000000
5767 -0.09000000
5768 -0.09000000
5769 -0.08500000
5770 -0.09500000
5771 -0.11000000
5772 -0.09500000
5773 -0.11500000
5774 -0.10500000
5775 -0.10500000
5776 -0.10000000
5777 -0.09500000
5778 -0.09500000
5779 -0.04000000
5780 0.01000000
5781 0.01000000
5782 0.06500000
5783 0.17000000
5784 0.11000000
5785 0.02000000
5786 -0.03000000
5787 -0.05000000
5788 -0.15000000
5789 -0.21500000
5790 -0.21000000
5791 -0.21000000
5792 -0.20500000
5793 -0.26000000
5794 0.01500000
5795 0.75000000
5796 1.47500000
5797 1.04000000
5798 -0.26000000
5799 -0.77000000
5800 -0.53500000
5801 -0.26000000
5802 -0.17500000
5803 -0.17500000
5804 -0.15000000
5805 -0.14500000
5806 -0.14000000
5807 -0.13500000
5808 -0.11000000
5809 -0.09000000
5810 -0.06500000
5811 -0.04500000
5812 -0.03000000
5813 0.00000000
5814 0.01500000
5815 0.05000000
5816 0.09000000
5817 0.12000000
5818 0.16500000
5819 0.20000000
5820 0.22000000
5821 0.25000000
5822 0.27000000
5823 0.26500000
5824 0.27000000
5825 0.25500000
5826 0.22500000
5827 0.18000000
5828 0.13000000
5829 0.07500000
5830 0.04500000
5831 0.02000000
5832 0.00000000
5833 0.00000000
5834 -0.00500000
5835 -0.02000000
5836 0.00000000
5837 0.00000000
5838 0.00000000
5839 -0.00500000
5840 0.00000000
5841 -0.01500000
5842 -0.01000000
5843 -0.01000000
5844 -0.03000000
5845 -0.03500000
5846 -0.04500000
5847 -0.04500000
5848 -0.04500000
5849 -0.05500000
5850 -0.06500000
5851 -0.07000000
5852 -0.08500000
5853 -0.07500000
5854 -0.08000000
5855 -0.08000000
5856 -0.08500000
5857 -0.09500000
5858 -0.08000000
5859 -0.08500000
5860 -0.09000000
5861 -0.11000000
5862 -0.07000000
5863 -0.09000000
5864 -0.09500000
5865 -0.10000000
5866 -0.09500000
5867 -0.10500000
5868 -0.07000000
5869 -0.09000000
5870 -0.08500000
5871 -0.06500000
5872 -0.03000000
5873 0.05000000
5874 0.02500000
5875 0.10500000
5876 0.17500000
5877 0.11000000
5878 0.02500000
5879 -0.04000000
5880 -0.03500000
5881 -0.16000000
5882 -0.17500000
5883 -0.18500000
5884 -0.17000000
5885 -0.19500000
5886 -0.23000000
5887 0.13000000
5888 0.99500000
5889 1.62000000
5890 0.47000000
5891 -0.48500000
5892 -0.71500000
5893 -0.49500000
5894 -0.21000000
5895 -0.17500000
5896 -0.15000000
5897 -0.14500000
5898 -0.12500000
5899 -0.12500000
5900 -0.11500000
5901 -0.11000000
5902 -0.08000000
5903 -0.07000000
5904 -0.02500000
5905 -0.03000000
5906 0.01500000
5907 0.01500000
5908 0.06500000
5909 0.09000000
5910 0.13000000
5911 0.17500000
5912 0.20500000
5913 0.22500000
5914 0.25000000
5915 0.26000000
5916 0.27000000
5917 0.27500000
5918 0.25000000
5919 0.21500000
5920 0.16000000
5921 0.10500000
5922 0.08000000
5923 0.03500000
5924 0.00500000
5925 0.00000000
5926 -0.01000000
5927 -0.00500000
5928 -0.01000000
5929 -0.01000000
5930 -0.01500000
5931 -0.00500000
5932 0.00500000
5933 -0.00500000
5934 -0.00500000
5935 0.00000000
5936 -0.01500000
5937 -0.03000000
5938 -0.02500000
5939 -0.04000000
5940 -0.02500000
5941 -0.06000000
5942 -0.05000000
5943 -0.06000000
5944 -0.05000000
5945 -0.06500000
5946 -0.07000000
5947 -0.08000000
5948 -0.07500000
5949 -0.09500000
5950 -0.07500000
5951 -0.08000000
5952 -0.07500000
5953 -0.10000000
5954 -0.07500000
5955 -0.08500000
5956 -0.08500000
5957 -0.11500000
5958 -0.08000000
5959 -0.09000000
5960 -0.11000000
5961 -0.05000000
5962 0.00000000
5963 0.01000000
5964 0.04000000
5965 0.13500000
5966 0.14000000
5967 0.07500000
5968 -0.00500000
5969 -0.03000000
5970 -0.07500000
5971 -0.17500000
5972 -0.18500000
5973 -0.21500000
5974 -0.18000000
5975 -0.23500000
5976 -0.13500000
5977 0.32500000
5978 1.18000000
5979 1.59500000
5980 0.05000000
5981 -0.73000000
5982 -0.70500000
5983 -0.45000000
5984 -0.18500000
5985 -0.21000000
5986 -0.15500000
5987 -0.14500000
5988 -0.12500000
5989 -0.15500000
5990 -0.10500000
5991 -0.10500000
5992 -0.08000000
5993 -0.07000000
5994 -0.01000000
5995 -0.03000000
5996 0.01500000
5997 0.04000000
5998 0.07000000
5999 0.09000000

